#Acq. time (s)=	3
#Accumulations=	10
#Range (cm-¹)=	100...3500
#Windows=	6
#Autofocus=	Off
#AutoExposure=	Off
#Spike filter=	Multiple accum.
#Delay time (s)=	0
#Binning=	1
#Readout mode=	Signal
#DeNoise=	Off
#ICS correction=	Off
#Dark correction=	Off
#Inst. Process=	Off
#Instrument=	ARAMIS
#Detector=	Andor CCD
#Objective=	x50 SLWD
#Grating=	1800
#Filter=	100%
#Laser (nm)=	532
#Slit=	150
#Hole=	400
#Location=	Micro
#Range=	VIS
#StageXY=	Marzhauser
#StageZ=	Marzhauser
#X (µm)=	-7075
#Y (µm)=	-11616.5
#Z (µm)=	507.4
#Project=	
#Sample=	
#Site=	
#Title=	Oxidised MWCNTs 30_2
#Remark=	
#Date=	06.03.2020 12:28
#Acquired=	06.03.2020 12:28:51
100.291	252.222
101.183	254.108
102.074	244.994
102.968	255.436
103.86	259.878
104.751	268.986
105.643	258.983
106.536	258.758
107.427	259.867
108.318	257.531
109.209	262.417
110.102	260.525
110.993	274.522
111.884	270.742
112.775	273.072
113.665	285.403
114.556	280.4
115.446	283.064
116.337	278.728
117.227	274.725
118.119	265.389
119.009	258.053
119.899	256.272
120.789	263.603
121.679	253.711
122.567	253.708
123.456	243.483
124.346	240.814
125.235	240.144
126.125	246.253
127.014	252.694
127.903	257.803
128.793	248.133
129.682	248.575
130.569	252.794
131.457	271.125
132.346	269.455
133.235	266.897
134.122	240.339
135.01	236.447
135.899	221.778
136.787	235.108
137.673	227.105
138.561	223.88
139.45	206.878
140.336	209.542
141.224	211.317
142.109	203.536
142.997	198.978
143.885	203.753
144.77	210.417
145.658	211.192
146.543	206.411
147.431	203.63
148.316	197.961
149.203	204.958
150.088	204.955
150.975	204.064
151.86	209.839
152.745	205.503
153.632	212.278
154.516	205.275
155.401	197.383
156.287	198.603
157.172	201.489
158.056	203.264
158.942	199.928
159.826	201.814
160.71	207.922
161.594	201.697
162.48	200.139
163.364	192.025
164.247	198.578
165.131	187.797
166.015	190.239
166.898	191.569
167.783	197.122
168.667	199.008
169.55	203.672
170.433	195.558
171.316	197.333
172.199	192.108
173.082	201.883
173.964	203.547
174.847	195.989
175.73	193.319
176.612	194.761
177.495	194.647
178.377	191.533
179.257	189.53
180.139	187.639
181.021	186.525
181.903	191.411
182.785	192.853
183.667	192.961
184.549	192.514
185.428	192.622
186.31	191.73
187.191	193.283
188.073	193.28
188.952	187.5
189.833	185.719
190.714	187.716
191.593	193.491
192.474	185.155
193.355	184.153
194.234	186.816
195.115	186.48
195.993	188.255
196.874	186.808
197.752	185.139
198.633	188.58
199.511	188.578
200.391	189.686
201.269	191.016
202.149	182.903
203.027	181.455
203.907	182.675
204.785	182.116
205.665	191.003
206.542	187.555
207.42	189.33
208.299	188.105
209.176	184.325
210.054	181.1
210.933	182.764
211.81	187.539
212.687	178.314
213.564	183.978
214.441	180.641
215.319	191.083
216.196	184.858
217.073	183.966
217.949	177.741
218.826	184.516
219.702	183.069
220.58	187.955
221.456	177.841
222.332	185.061
223.208	187.169
224.084	181.833
224.96	185.608
225.836	185.383
226.711	185.602
227.587	183.711
228.462	187.597
229.338	180.261
230.213	180.591
231.086	187.589
231.962	189.697
232.837	184.805
233.712	189.358
234.586	186.244
235.461	189.575
236.334	185.016
237.209	186.236
238.083	190.455
238.958	192.119
239.83	189.339
240.704	183.891
241.579	181
242.453	192.775
243.325	181.994
244.199	186.325
245.071	182.989
245.944	189.764
246.818	190.094
247.69	184.647
248.563	188.2
249.435	190.53
250.308	181.083
251.179	196.525
252.053	192.189
252.924	180.852
253.797	193.627
254.668	183.847
255.541	185.511
256.411	186.841
257.282	187.061
258.155	190.502
259.025	184.611
259.896	184.719
260.768	182.605
261.638	189.047
262.509	184.822
263.381	186.819
264.251	193.927
265.121	183.036
265.991	184.255
266.862	184.03
267.732	186.916
268.602	194.358
269.471	193.244
270.341	191.686
271.21	190.238
272.079	187.569
272.949	184.122
273.818	187.675
274.689	187.783
275.558	191.113
276.427	182.111
277.295	193.775
278.162	183.883
279.031	195.769
279.899	191.211
280.768	179.763
281.636	188.872
282.504	182.536
283.373	181.088
284.241	175.975
285.109	188.194
285.975	181.302
286.843	190.411
287.71	188.075
288.578	188.627
289.446	187.736
290.311	190.4
291.179	183.508
292.046	187.505
292.911	183.502
293.779	186.722
294.646	181.275
295.511	184.605
296.378	185.602
297.243	176.933
298.11	174.597
298.976	180.927
299.841	181.258
300.707	179.366
301.572	174.808
302.438	180.583
303.303	185.802
304.169	179.355
305.033	171.019
305.897	175.238
306.763	182.013
307.627	176.9
308.493	179.452
309.356	180.783
310.22	172.891
311.086	176.222
311.949	183.33
312.813	174.994
313.676	174.991
314.541	173.766
315.404	182.43
316.267	173.761
317.13	179.647
317.993	178.755
318.858	173.086
319.721	174.416
320.583	176.636
321.446	170.744
322.309	170.408
323.171	177.183
324.033	166.847
324.896	167.955
325.758	167.952
326.62	170.394
327.482	168.947
328.344	170.277
329.206	168.274
330.067	172.049
330.929	175.047
331.791	171.711
332.652	165.263
333.514	165.816
334.373	167.591
335.234	174.033
336.095	168.697
336.957	166.583
337.818	170.58
338.676	170.244
339.537	163.019
340.398	169.127
341.257	156.68
342.117	170.788
342.978	168.119
343.836	162.783
344.697	168.224
345.557	168.333
346.415	171.886
347.275	162.216
348.133	158.436
348.993	161.766
349.853	164.652
350.711	164.316
351.571	165.536
352.428	159.866
353.286	161.641
354.146	164.416
355.003	164.191
355.862	162.744
356.719	161.963
357.577	160.849
358.436	160.958
359.293	164.733
360.15	164.063
361.008	160.616
361.865	161.058
362.722	164.944
363.578	158.274
364.437	163.383
365.293	161.824
366.15	153.266
367.006	155.263
367.862	163.705
368.72	155.702
369.576	158.588
370.432	160.363
371.288	162.249
372.144	156.358
373	157.688
373.855	161.908
374.711	161.572
375.566	162.791
376.422	155.788
377.277	159.008
378.132	162.449
378.987	160.78
379.842	159.666
380.697	165.108
381.55	163.994
382.405	163.991
383.26	155.21
384.114	169.43
384.969	159.538
385.823	159.424
386.676	159.755
387.53	158.53
388.384	165.416
389.236	158.08
390.091	158.744
390.945	161.297
391.798	156.183
392.65	165.624
393.504	164.399
394.356	158.285
395.209	160.727
396.063	155.502
396.914	153.61
397.768	163.163
398.619	155.938
399.472	165.713
400.323	162.155
401.176	158.596
402.027	164.371
402.878	158.813
403.731	159.366
404.582	165.03
405.434	162.583
406.285	157.58
407.135	160.577
407.988	160.796
408.838	156.46
409.688	164.235
410.538	157.01
411.391	162.674
412.241	166.449
413.091	167.891
413.94	158.999
414.79	163.441
415.642	167.994
416.491	165.88
417.341	167.21
418.19	159.763
419.04	163.427
419.889	162.535
420.738	168.533
421.587	160.308
422.436	167.083
423.285	166.08
424.134	165.744
424.983	167.408
425.832	160.738
426.68	164.513
427.529	165.844
428.378	158.396
429.226	161.283
430.074	162.946
430.92	170.388
431.769	159.941
432.617	162.605
433.465	163.269
434.311	164.266
435.159	168.152
436.006	167.149
436.854	160.702
437.7	166.144
438.547	167.919
439.395	166.805
440.24	172.691
441.087	156.244
441.935	163.908
442.78	163.016
443.627	171.124
444.472	161.232
445.319	165.23
446.163	163.005
447.01	161.335
447.855	163.11
448.702	167.441
449.546	161.438
450.392	159.546
451.237	162.988
452.081	160.763
452.927	162.982
453.771	169.313
454.615	161.088
455.461	164.53
456.305	165.082
457.149	166.413
457.993	155.077
458.838	161.519
459.682	162.849
460.525	160.624
461.369	157.288
462.212	161.396
463.057	159.949
463.901	163.28
464.744	158.277
465.587	163.052
466.43	160.938
467.273	148.38
468.115	156.044
468.958	156.596
469.801	160.816
470.643	161.702
471.486	159.032
472.328	162.696
473.17	147.36
474.013	161.691
474.855	158.132
475.697	160.352
476.537	162.349
477.379	161.68
478.221	158.677
479.062	154.896
479.904	155.449
480.744	155.669
481.585	155.11
482.427	156.774
483.268	155.994
484.107	152.324
484.948	156.21
485.79	156.874
486.629	151.093
487.47	165.757
488.309	161.421
489.149	153.53
489.99	156.305
490.829	155.857
491.669	155.521
492.508	154.63
493.348	155.627
494.187	153.068
495.027	151.288
495.865	152.618
496.703	153.393
497.543	150.835
498.381	153.388
499.221	147.052
500.059	152.605
500.897	156.713
501.736	149.599
502.574	147.707
503.412	153.038
504.249	152.146
505.088	150.032
505.926	150.918
506.763	147.916
507.6	150.357
508.437	146.466
509.274	151.907
510.113	150.46
510.95	150.791
511.786	146.788
512.623	148.341
513.46	148.893
514.296	150.224
515.133	150.11
515.969	151.552
516.805	149.216
517.641	152.546
518.477	148.432
519.313	151.985
520.149	145.205
520.983	147.646
521.819	151.977
522.655	150.196
523.49	148.416
524.326	151.079
525.161	150.966
525.995	156.852
526.83	147.849
527.666	155.18
528.501	151.177
529.334	147.73
530.169	154.616
531.004	156.391
531.837	157.054
532.672	163.163
533.504	153.938
534.339	146.602
535.173	155.599
536.006	153.263
536.84	155.816
537.673	157.257
538.507	155.477
539.339	157.585
540.173	157.804
541.005	157.579
541.839	159.243
542.671	159.352
543.503	162.904
544.337	155.346
545.168	162.566
546	160.229
546.833	161.116
547.665	164.891
548.496	162.221
549.327	164.885
550.161	168.216
550.992	162.768
551.823	160.21
552.654	161.763
553.485	167.204
554.317	162.535
555.148	163.643
555.979	163.085
556.809	159.082
557.64	160.191
558.47	163.299
559.301	161.407
560.131	162.404
560.961	161.179
561.791	160.399
562.621	161.618
563.451	154.393
564.281	163.057
565.111	157.277
565.941	160.052
566.768	158.827
567.598	160.379
568.428	157.821
569.257	159.152
570.086	158.149
570.914	164.813
571.743	165.588
572.572	157.918
573.401	157.36
574.228	161.024
575.057	160.465
575.886	158.685
576.713	159.015
577.541	160.235
578.37	156.232
579.196	158.34
580.025	153.893
580.851	156.224
581.68	157.443
582.506	160.218
583.334	157.215
584.16	160.435
584.988	153.099
585.814	153.54
586.642	158.427
587.468	164.868
588.293	156.088
589.121	151.418
589.946	153.193
590.772	157.524
591.599	157.077
592.425	151.963
593.25	156.627
594.075	153.402
594.902	154.51
595.727	154.729
596.552	154.615
597.377	153.39
598.202	150.165
599.026	151.607
599.853	153.715
600.678	155.268
601.502	161.71
602.327	153.707
603.151	149.371
603.975	151.257
604.799	149.365
605.624	149.252
606.448	153.249
607.272	148.69
608.096	151.132
608.919	151.907
609.741	146.571
610.565	146.124
611.388	151.232
612.212	147.896
613.035	148.227
613.859	143.002
614.68	152.554
615.503	146.996
616.326	143.66
617.149	138.657
617.97	147.432
618.793	143.874
619.616	141.315
620.437	148.979
621.26	145.532
622.08	146.307
622.903	143.86
623.725	151.524
624.546	148.965
625.368	143.629
626.188	146.738
627.01	144.957
627.831	148.065
628.653	145.396
629.473	143.726
630.292	144.168
631.114	142.499
631.934	145.385
632.756	150.16
633.575	143.935
634.395	144.488
635.216	148.04
636.035	141.593
636.855	144.368
637.674	144.81
638.495	142.251
639.314	148.804
640.133	141.135
640.952	138.132
641.771	137.907
642.59	134.015
643.408	143.235
644.229	140.343
645.047	140.229
645.866	133.115
646.684	137.113
647.503	138.665
648.321	137.885
649.139	135.66
649.957	140.546
650.775	142.876
651.591	140.429
652.409	135.204
653.227	136.646
654.045	139.865
654.862	135.751
655.68	136.304
656.497	135.968
657.313	137.521
658.13	140.296
658.947	132.849
659.765	134.957
660.58	131.732
661.397	140.507
662.214	136.393
663.029	138.501
663.846	135.943
664.662	134.496
665.477	130.049
666.294	137.601
667.108	133.376
667.925	129.04
668.739	133.149
669.555	130.368
670.37	133.143
671.186	133.029
672	130.471
672.816	138.357
673.63	137.799
674.444	130.351
675.26	133.793
676.073	128.346
676.887	135.565
677.703	125.785
678.516	131.226
679.33	131.335
680.145	131.887
680.958	128.662
681.772	128.104
682.585	126.657
683.398	125.321
684.213	122.318
685.026	129.871
685.839	129.535
686.651	125.087
687.464	127.529
688.277	126.193
689.089	124.857
689.902	126.299
690.714	127.74
691.527	132.293
692.339	125.624
693.151	130.176
693.963	128.396
694.775	122.504
695.587	128.946
696.399	122.499
697.209	123.496
698.021	126.382
698.833	118.379
699.644	121.043
700.456	124.818
701.265	124.926
702.077	126.59
702.888	131.032
703.697	119.362
704.508	124.804
705.319	121.912
706.129	121.798
706.939	124.351
707.75	121.348
708.559	122.679
709.37	119.454
710.179	119.673
710.989	125.893
711.798	122.668
712.608	119.665
713.417	124.44
714.227	123.104
715.035	123.879
715.843	119.765
716.654	122.096
717.462	120.871
718.269	120.646
719.079	123.532
719.887	121.64
720.695	117.193
721.505	123.635
722.312	124.298
723.12	126.296
723.927	115.404
724.737	120.957
725.544	119.843
726.351	125.173
727.158	120.837
727.965	118.612
728.772	122.054
729.579	116.051
730.386	114.048
731.193	118.268
732	123.265
732.806	121.485
733.613	119.371
734.419	119.035
735.226	118.143
736.032	115.918
736.839	117.36
737.645	117.357
738.451	122.687
739.257	121.907
740.061	115.126
740.867	114.679
741.673	117.232
742.479	115.673
743.282	116.782
744.088	112.112
744.894	122.332
745.699	124.662
746.503	116.326
747.308	112.99
748.111	113.654
748.917	117.318
749.722	116.648
750.525	115.312
751.33	118.532
752.133	124.084
752.938	117.193
753.74	118.412
754.545	118.521
755.348	114.962
756.152	121.737
756.955	114.179
757.757	122.287
758.562	116.396
759.364	114.837
760.166	117.057
760.97	115.832
761.773	119.162
762.575	115.159
763.378	119.379
764.18	114.598
764.982	119.373
765.784	123.148
766.586	121.146
767.387	122.365
768.191	116.584
768.992	121.248
769.793	118.246
770.595	119.465
771.396	115.907
772.197	115.682
772.998	112.568
773.799	121.676
774.6	114.562
775.401	118.782
776.202	116.001
777.003	115.221
777.803	122.662
778.602	119.548
779.402	117.323
780.203	116.432
781.003	119.984
781.804	108.648
782.604	111.423
783.402	117.643
784.202	117.307
785.002	118.859
785.8	116.745
786.6	124.854
787.4	114.962
788.198	114.515
788.997	118.734
789.797	116.509
790.594	120.729
791.394	111.948
792.191	119.945
792.991	116.054
793.788	116.051
794.587	120.715
795.384	117.934
796.183	114.043
796.98	117.818
797.779	117.482
798.576	114.812
799.373	115.476
800.171	117.029
800.968	111.804
801.765	117.69
802.563	111.132
803.359	111.129
804.156	117.57
804.952	116.79
805.75	110.12
806.546	118.34
807.342	116.004
808.138	114.445
808.934	109.887
809.73	115.995
810.526	115.882
811.322	117.657
812.117	114.432
812.913	119.762
813.708	117.426
814.504	116.09
815.299	116.532
816.095	111.751
816.89	117.082
817.685	109.857
818.48	115.52
819.275	111.629
820.07	115.293
820.865	112.734
821.658	115.954
822.452	110.951
823.247	109.393
824.042	114.279
824.834	111.943
825.629	114.606
826.423	107.826
827.217	107.49
828.01	112.043
828.804	111.04
829.596	109.815
830.39	110.479
831.184	113.476
831.976	111.695
832.77	108.248
833.561	111.023
834.355	109.243
835.147	113.018
835.94	112.237
836.732	112.234
837.523	110.231
838.317	109.673
839.108	110.781
839.899	110.779
840.692	108.887
841.483	112.329
842.274	107.77
843.067	111.768
843.858	116.765
844.649	112.318
845.44	112.759
846.232	114.868
847.023	108.309
847.813	113.751
848.604	112.415
849.394	113.412
850.184	113.854
850.975	109.073
851.765	103.181
852.555	112.512
853.345	112.065
854.135	113.84
854.925	108.948
855.715	112.945
856.504	112.498
857.294	113.051
858.084	107.604
858.873	113.268
859.663	108.154
860.45	111.151
861.24	113.593
862.029	114.59
862.818	115.254
863.607	110.806
864.394	106.137
865.183	109.69
865.972	106.798
866.759	106.998
867.548	104.782
868.337	106.661
869.123	105.647
869.912	104.992
870.698	107.572
871.487	110.606
872.273	106.661
873.062	106.532
873.848	108.975
874.636	107.608
875.422	107.852
876.21	103.428
876.996	106.239
877.784	112.075
878.57	108.397
879.356	108.316
880.143	114.371
880.929	109.18
881.715	103.892
882.5	107.674
883.287	104.956
884.073	112.173
884.858	108.623
885.643	108.373
886.429	104.971
887.216	110.146
888.001	108.964
888.786	106.066
889.57	106.837
890.355	109.569
891.14	107.167
891.925	106.141
892.709	108.78
893.494	108.183
894.278	106.31
895.063	106.102
895.847	110.157
896.631	108.901
897.416	106.471
898.198	109.381
898.982	110.768
899.766	108.005
900.55	109.338
901.334	110.307
902.115	113.419
902.899	110.748
903.683	109.035
904.466	113.042
905.248	106.757
906.031	110.184
906.815	111.736
907.596	113.123
908.379	112.19
909.161	113.731
909.944	112.775
910.725	112.986
911.508	114.656
912.289	110.022
913.072	112.221
913.852	112.783
914.635	113.781
915.416	115.054
916.198	115.613
916.979	114.416
917.759	112.439
918.542	113.12
919.322	113.446
920.102	115.632
920.884	113.806
921.665	114.182
922.445	117.656
923.225	116.777
924.005	119.87
924.786	119.497
925.566	117.253
926.346	118.555
927.126	118.089
927.905	123.448
928.685	119.519
929.464	120.648
930.243	125.084
931.023	121.483
931.802	121.717
932.581	118.236
933.36	123.985
934.139	123.901
934.918	118.708
935.697	123.527
936.476	123.883
937.253	120.313
938.032	121.143
938.81	121.55
939.589	124.224
940.367	124.07
941.144	125.701
941.922	126.389
942.7	125.694
943.477	128.982
944.255	126.452
945.033	122.478
945.809	123.981
946.587	121.947
947.365	124.207
948.141	125.187
948.919	124.554
949.23	124.536
950.025	131.345
950.822	130.265
951.617	127.963
952.412	130.883
953.207	130.247
954.001	122.39
954.796	126.643
955.589	125.785
956.383	133.15
957.178	129.403
957.972	131.101
958.767	130.577
959.561	124.941
960.355	129.528
961.15	133.115
961.942	127.812
962.736	128.066
963.53	129.764
964.324	132.128
965.115	131.826
965.909	123.413
966.703	132.111
967.496	128.364
968.288	129.951
969.081	131.982
969.875	134.235
970.666	129.155
971.459	133.964
972.251	134.551
973.044	135.471
973.835	133.058
974.628	133.867
975.419	135.565
976.212	136.929
977.002	140.183
977.795	137.325
978.586	135.911
979.378	136.72
980.169	144.307
980.961	143.894
981.752	139.036
982.542	140.512
983.334	139.099
984.124	142.13
984.914	142.716
985.705	144.748
986.496	138.779
987.286	143.254
988.076	145.952
988.866	135.539
989.658	144.681
990.447	142.824
991.237	149.744
992.026	142.33
992.816	143.028
993.605	138.393
994.394	144.757
995.183	145.677
995.973	147.597
996.764	144.851
997.553	143.437
998.341	142.802
999.13	142.722
999.917	146.531
1000.71	140.451
1001.49	144.038
1002.28	143.847
1003.07	147.322
1003.86	146.354
1004.65	151.274
1005.44	149.527
1006.22	147.558
1007.01	143.478
1007.8	144.62
1008.59	148.318
1009.38	151.349
1010.16	153.381
1010.95	154.634
1011.74	153.665
1012.52	147.585
1013.31	143.95
1014.1	152.759
1014.88	158.568
1015.67	153.043
1016.46	156.852
1017.24	156.439
1018.03	155.915
1018.82	148.724
1019.6	160.421
1020.39	155.008
1021.17	156.484
1021.96	160.737
1022.75	158.657
1023.53	161.799
1024.32	162.275
1025.1	164.64
1025.89	159.226
1026.67	163.48
1027.46	161.844
1028.24	162.32
1029.03	163.795
1029.81	165.604
1030.6	166.858
1031.38	167.778
1032.17	168.365
1032.95	169.951
1033.73	170.316
1034.52	171.014
1035.3	162.712
1036.09	177.076
1036.87	174.885
1037.65	175.472
1038.44	167.392
1039.22	179.756
1040	175.343
1040.79	176.485
1041.57	175.628
1042.35	173.548
1043.14	180.357
1043.92	176.499
1044.7	182.863
1045.49	182.783
1046.27	178.704
1047.05	183.29
1047.83	186.877
1048.61	185.686
1049.4	185.273
1050.18	185.637
1050.96	193.335
1051.74	186.477
1052.52	190.953
1053.31	191.095
1054.09	194.793
1054.87	197.269
1055.65	196.522
1056.43	192.664
1057.21	199.14
1057.99	194.504
1058.78	195.647
1059.56	192.233
1060.34	202.376
1061.12	201.629
1061.9	203.438
1062.68	199.469
1063.46	203.723
1064.24	205.976
1065.02	209.674
1065.8	209.15
1066.58	212.403
1067.36	204.212
1068.14	213.132
1068.92	209.385
1069.7	216.639
1070.48	216.003
1071.26	218.146
1072.04	213.843
1072.81	215.875
1073.59	219.017
1074.37	221.492
1075.15	223.968
1075.93	224.777
1076.71	223.919
1077.49	222.617
1078.27	227.648
1079.04	224.346
1079.82	234.044
1080.6	230.297
1081.38	236.329
1082.15	230.804
1082.93	227.502
1083.71	232.422
1084.49	230.564
1085.26	234.818
1086.04	239.516
1086.82	234.88
1087.6	232.689
1088.37	237.942
1089.15	238.64
1089.93	239.227
1090.7	243.48
1091.48	246.067
1092.26	232.654
1093.03	235.352
1093.81	236.272
1094.59	237.192
1095.36	236.89
1096.14	237.254
1096.91	246.508
1097.69	235.983
1098.47	238.792
1099.24	234.712
1100.02	238.41
1100.79	237.886
1101.57	244.472
1102.34	240.17
1103.12	238.757
1103.89	241.233
1104.67	229.93
1105.44	238.739
1106.22	236.993
1106.99	230.691
1107.77	231.388
1108.54	230.197
1109.32	222.229
1110.09	238.482
1110.86	233.846
1111.64	222.322
1112.41	234.575
1113.18	229.718
1113.96	228.193
1114.73	223.78
1115.51	231.256
1116.28	219.954
1117.05	227.651
1117.82	224.46
1118.6	225.047
1119.37	223.745
1120.14	221.554
1120.92	216.141
1121.69	214.394
1122.46	220.647
1123.23	215.901
1124.01	222.821
1124.78	221.63
1125.55	214.55
1126.32	219.803
1127.09	216.834
1127.87	212.643
1128.64	217.675
1129.41	209.928
1130.18	213.07
1130.95	208.99
1131.72	212.355
1132.49	203.053
1133.26	207.195
1134.04	206.671
1134.81	211.591
1135.58	207.066
1136.35	211.431
1137.12	192.129
1137.89	200.826
1138.66	209.969
1139.43	206.555
1140.2	204.92
1140.97	202.062
1141.74	197.316
1142.51	202.458
1143.28	201.045
1144.05	203.631
1144.82	199.329
1145.59	199.916
1146.36	200.836
1147.13	196.645
1147.9	193.232
1148.66	194.818
1149.43	192.85
1150.2	200.103
1150.97	195.69
1151.74	190.721
1152.51	186.863
1153.28	194.783
1154.04	200.037
1154.81	199.29
1155.58	193.877
1156.35	196.352
1157.12	190.161
1157.89	196.526
1158.65	189.89
1159.42	189.033
1160.19	192.286
1160.96	192.873
1161.72	197.237
1162.49	193.046
1163.26	190.522
1164.02	193.109
1164.79	188.917
1165.56	185.615
1166.32	192.869
1167.09	188.011
1167.86	196.264
1168.62	193.073
1169.39	189.993
1170.16	187.802
1170.92	188.278
1171.69	194.754
1172.45	194.34
1173.22	185.149
1173.98	188.625
1174.75	185.323
1175.52	194.576
1176.28	190.385
1177.05	180.861
1177.81	189.003
1178.58	190.256
1179.34	184.621
1180.11	191.208
1180.87	182.128
1181.64	185.27
1182.4	188.079
1183.17	182.443
1183.93	189.141
1184.69	188.617
1185.46	179.981
1186.22	192.235
1186.99	184.488
1187.75	186.853
1188.51	180.551
1189.28	189.915
1190.04	187.502
1190.8	181.089
1191.57	185.564
1192.33	186.151
1193.09	190.849
1193.86	186.658
1194.62	187.911
1195.38	185.609
1196.14	180.973
1196.91	184.449
1197.67	185.591
1198.43	186.4
1199.19	178.543
1199.96	187.685
1200.72	186.383
1201.48	184.636
1202.24	180.556
1203	186.476
1203.77	185.285
1204.53	196.761
1205.29	188.792
1206.05	184.379
1206.81	185.188
1207.57	187.33
1208.33	183.694
1209.1	185.17
1209.86	189.868
1210.62	187.788
1211.38	185.375
1212.14	190.072
1212.9	185.77
1213.66	190.135
1214.42	185.277
1215.18	190.642
1215.94	190.784
1216.7	193.593
1217.46	190.513
1218.22	189.544
1218.98	191.686
1219.74	189.384
1220.5	188.082
1221.26	195.335
1222.02	194.922
1222.78	191.953
1223.53	193.318
1224.29	187.127
1225.05	193.047
1225.81	191.3
1226.57	194.109
1227.33	195.14
1228.09	198.727
1228.84	195.314
1229.6	198.234
1230.36	195.376
1231.12	195.518
1231.88	201.216
1232.63	194.025
1233.39	207.39
1234.15	198.643
1234.91	206.008
1235.67	203.817
1236.42	198.848
1237.18	204.434
1237.94	200.132
1238.69	201.719
1239.45	206.861
1240.21	199.448
1240.96	204.035
1241.72	212.399
1242.48	216.653
1243.23	214.017
1243.99	204.048
1244.75	206.524
1245.5	208.666
1246.26	206.031
1247.01	212.506
1247.77	207.204
1248.53	207.124
1249.28	209.933
1250.04	208.631
1250.79	216.551
1251.55	206.36
1252.3	211.947
1253.06	220.422
1253.81	216.787
1254.57	211.707
1255.32	220.183
1256.08	219.992
1256.83	228.356
1257.59	224.054
1258.34	221.641
1259.1	225.672
1259.85	222.592
1260.6	227.401
1261.36	224.099
1262.11	226.241
1262.87	222.828
1263.62	235.748
1264.37	224.112
1265.13	237.032
1265.88	233.397
1266.63	230.984
1267.39	235.459
1268.14	241.935
1268.89	233.855
1269.65	243.553
1270.4	238.806
1271.15	250.171
1271.9	249.424
1272.66	247.677
1273.41	247.82
1274.16	250.629
1274.91	256.549
1275.67	247.691
1276.42	254.167
1277.17	254.198
1277.92	251.673
1278.67	263.149
1279.42	264.18
1280.18	269.323
1280.93	262.354
1281.68	272.051
1282.43	273.527
1283.18	276.336
1283.93	289.367
1284.68	280.287
1285.43	281.207
1286.18	287.905
1286.93	289.825
1287.69	291.301
1288.44	290.332
1289.19	301.03
1289.94	299.283
1290.69	301.759
1291.44	299.346
1292.19	310.488
1292.94	319.297
1293.69	316.328
1294.44	319.581
1295.19	329.39
1295.93	336.088
1296.68	315.786
1297.43	338.595
1298.18	341.293
1298.93	346.88
1299.68	353.8
1300.43	355.942
1301.18	359.64
1301.93	372.671
1302.67	376.924
1303.42	368.289
1304.17	397.987
1304.92	379.796
1305.67	398.271
1306.41	405.636
1307.16	412.334
1307.91	441.143
1308.66	440.285
1309.41	443.427
1310.15	449.903
1310.9	464.378
1311.65	477.41
1312.39	484.663
1313.14	493.139
1313.89	502.503
1314.64	521.645
1315.38	536.343
1316.13	545.597
1316.88	560.406
1317.62	569.659
1318.37	586.023
1319.12	610.61
1319.86	614.086
1320.61	648.672
1321.35	660.815
1322.1	668.402
1322.85	693.988
1323.59	711.464
1324.34	723.828
1325.08	750.193
1325.83	759.891
1326.57	804.811
1327.32	831.953
1328.06	848.429
1328.81	860.016
1329.55	884.824
1330.3	913.967
1331.04	932.331
1331.79	971.362
1332.53	987.727
1333.28	1002.2
1334.02	1030.57
1334.76	1059.04
1335.51	1065.85
1336.25	1092.88
1337	1113.69
1337.74	1116.83
1338.48	1122.98
1339.23	1151.01
1339.97	1146.82
1340.71	1168.74
1341.46	1171.88
1342.2	1154.35
1342.94	1159.27
1343.69	1151.53
1344.43	1145.78
1345.17	1132.81
1345.92	1122.84
1346.66	1106.54
1347.4	1084.13
1348.14	1073.49
1348.89	1055.19
1349.63	1032.67
1350.37	1001.03
1351.11	974.062
1351.85	953.537
1352.6	949.791
1353.34	909.044
1354.08	884.631
1354.82	872.551
1355.56	831.582
1356.3	824.947
1357.04	805.867
1357.79	788.564
1358.53	749.707
1359.27	732.071
1360.01	717.102
1360.75	694.356
1361.49	676.387
1362.23	655.641
1362.97	648.449
1363.71	626.48
1364.45	599.067
1365.19	590.098
1365.93	574.13
1366.67	560.161
1367.41	542.303
1368.15	534.445
1368.89	509.143
1369.63	509.508
1370.37	495.872
1371.11	488.126
1371.85	464.268
1372.59	457.855
1373.33	460.886
1374.07	440.361
1374.8	437.17
1375.54	423.979
1376.28	411.788
1377.02	407.931
1377.76	398.962
1378.5	395.993
1379.23	389.913
1379.97	374.5
1380.71	372.753
1381.45	363.784
1382.19	359.482
1382.92	357.736
1383.66	348.433
1384.4	351.02
1385.14	342.273
1385.87	334.638
1386.61	328.114
1387.35	323.7
1388.09	328.398
1388.82	326.207
1389.56	313.016
1390.3	316.047
1391.03	317.412
1391.77	307.887
1392.51	305.807
1393.24	297.616
1393.98	300.203
1394.72	298.901
1395.45	299.154
1396.19	292.186
1396.92	284.217
1397.66	274.803
1398.4	282.39
1399.13	281.866
1399.87	281.564
1400.6	283.928
1401.34	281.848
1402.07	279.99
1402.81	268.355
1403.54	274.164
1404.28	273.417
1405.01	270.671
1405.75	273.924
1406.48	273.955
1407.21	262.986
1407.95	260.351
1408.68	258.16
1409.42	260.636
1410.15	265.333
1410.89	259.365
1411.62	254.507
1412.35	257.982
1413.09	253.347
1413.82	251.156
1414.55	251.743
1415.29	247.996
1416.02	250.138
1416.75	244.392
1417.49	251.09
1418.22	255.121
1418.95	247.041
1419.69	242.294
1420.42	247.548
1421.15	250.912
1421.88	246.943
1422.62	242.863
1423.35	242.895
1424.08	233.148
1424.81	246.735
1425.55	243.21
1426.28	237.797
1427.01	233.828
1427.74	237.082
1428.47	240.002
1429.2	239.588
1429.94	236.064
1430.67	239.206
1431.4	236.793
1432.13	243.935
1432.86	234.966
1433.59	236.331
1434.32	240.807
1435.05	236.727
1435.78	240.202
1436.51	243.789
1437.24	235.153
1437.97	237.962
1438.7	241.771
1439.43	231.136
1440.16	236.945
1440.89	236.42
1441.62	237.34
1442.35	237.261
1443.08	240.625
1443.81	237.878
1444.54	229.91
1445.27	240.719
1446	230.194
1446.73	243.225
1447.46	238.701
1448.19	233.51
1448.92	240.208
1449.65	238.906
1450.37	237.048
1451.1	236.301
1451.83	234.221
1452.56	238.364
1453.29	228.395
1454.02	237.315
1454.74	234.235
1455.47	235.933
1456.2	233.52
1456.93	236.884
1457.66	240.693
1458.38	232.169
1459.11	238.755
1459.84	236.787
1460.57	241.04
1461.29	242.516
1462.02	235.88
1462.75	236.022
1463.47	233.276
1464.2	233.418
1464.93	240.782
1465.65	237.258
1466.38	230.512
1467.11	229.987
1467.83	244.018
1468.56	239.161
1469.29	244.414
1470.01	240.778
1470.74	240.032
1471.46	239.174
1472.19	240.539
1472.92	238.57
1473.64	239.823
1474.37	237.632
1475.09	230.663
1475.82	238.583
1476.54	241.059
1477.27	246.09
1477.99	237.232
1478.72	243.486
1479.44	241.184
1480.17	245.437
1480.89	247.802
1481.62	244.944
1482.34	250.086
1483.06	243.562
1483.79	247.149
1484.51	243.624
1485.24	242.1
1485.96	249.909
1486.69	250.162
1487.41	249.304
1488.13	246.224
1488.86	255.256
1489.58	243.842
1490.3	249.429
1491.03	243.016
1491.75	244.603
1492.47	246.078
1493.19	259.887
1493.92	250.363
1494.64	254.616
1495.36	256.092
1496.08	255.79
1496.81	260.599
1497.53	262.408
1498.25	252.216
1498.97	253.581
1499.7	255.834
1500.42	263.088
1501.14	252.008
1501.86	260.483
1502.58	269.848
1503.3	269.768
1504.03	263.355
1504.75	267.83
1505.47	273.417
1506.19	278.559
1506.91	276.591
1507.63	268.844
1508.35	272.097
1509.07	277.351
1509.8	271.937
1510.52	280.302
1511.24	281.111
1511.96	280.587
1512.68	280.729
1513.4	277.427
1514.12	280.458
1514.84	286.711
1515.56	300.853
1516.28	294.885
1517	302.36
1517.72	293.058
1518.43	289.089
1519.15	299.787
1519.87	309.152
1520.59	306.294
1521.31	306.658
1522.03	310.579
1522.75	315.499
1523.47	319.085
1524.19	314.672
1524.91	318.814
1525.62	329.29
1526.34	327.988
1527.06	337.352
1527.78	334.161
1528.5	335.526
1529.22	356.89
1529.93	354.588
1530.65	361.73
1531.37	360.873
1532.09	375.459
1532.81	380.824
1533.52	377.3
1534.24	384.775
1534.96	404.251
1535.67	395.726
1536.39	408.313
1537.11	417.9
1537.82	421.709
1538.54	424.407
1539.26	436.104
1539.98	447.136
1540.69	454.278
1541.41	475.754
1542.12	480.896
1542.84	503.927
1543.56	520.847
1544.27	513.434
1544.99	539.798
1545.7	558.163
1546.42	579.083
1547.14	587.225
1547.85	605.59
1548.57	628.176
1549.28	653.207
1550	689.794
1550.71	726.603
1551.43	726.412
1552.14	776.221
1552.86	789.586
1553.57	839.061
1554.29	859.537
1555	905.568
1555.72	930.821
1556.43	976.63
1557.14	998.884
1557.86	1073.47
1558.57	1092.84
1559.29	1150.2
1560	1211.9
1560.71	1263.82
1561.43	1305.29
1562.14	1352.88
1562.85	1431.69
1563.57	1460.67
1564.28	1530.49
1565	1545.32
1565.71	1624.66
1566.42	1683.27
1567.13	1732.87
1567.85	1742.22
1568.56	1765.52
1569.27	1804.19
1569.99	1822.35
1570.7	1826.2
1571.41	1830.07
1572.12	1854.67
1572.83	1811.74
1573.55	1803.89
1574.26	1776.09
1574.97	1750.16
1575.68	1711.7
1576.39	1679.37
1577.1	1627.88
1577.82	1596.42
1578.53	1536.44
1579.24	1502.79
1579.95	1459.28
1580.66	1394.95
1581.37	1340.68
1582.08	1290.46
1582.79	1245.54
1583.51	1194.49
1584.22	1147.55
1584.93	1110.28
1585.64	1080.81
1586.35	1025.21
1587.06	988.978
1587.77	965.391
1588.48	934.484
1589.19	880.787
1589.9	869.184
1590.61	830.583
1591.32	806.725
1592.03	786.077
1592.73	767.227
1593.44	751.547
1594.15	733.696
1594.86	720.372
1595.57	702.759
1596.28	679.961
1596.99	674.871
1597.7	666.241
1598.41	653.519
1599.12	643.164
1599.82	651.706
1600.53	642.642
1601.24	639.653
1601.95	640.395
1602.66	630.311
1603.37	632.528
1604.07	635.024
1604.78	633.036
1605.49	646.484
1606.2	638.274
1606.9	648.69
1607.61	645.152
1608.32	640.563
1609.03	644.599
1609.73	634.117
1610.44	632.649
1611.15	631.66
1611.86	626.796
1612.56	622.383
1613.27	605.855
1613.98	591.119
1614.68	583.171
1615.39	561.589
1616.09	545.426
1616.8	527.822
1617.51	509.97
1618.21	490.295
1618.92	474.424
1619.62	457.98
1620.33	437.545
1621.03	417.321
1621.74	396.233
1622.45	388.45
1623.15	374.159
1623.86	365.158
1624.56	342.332
1625.27	333.755
1625.97	326.819
1626.68	323.278
1627.38	307.265
1628.09	300.384
1628.79	286.169
1629.5	276.913
1630.2	275.646
1630.9	258.533
1631.61	262.004
1632.31	254.219
1633.02	244.996
1633.72	239.377
1634.42	239.386
1635.13	234.815
1635.83	222.646
1636.54	213.709
1637.24	221.507
1637.41	224.384
1638.13	208.724
1638.85	214.842
1639.57	212.293
1640.29	203.744
1641.01	200.861
1641.73	197.423
1642.46	195.874
1643.18	191.88
1643.9	195.665
1644.62	192.449
1645.34	182.678
1646.06	187.795
1646.78	178.246
1647.5	179.141
1648.22	175.259
1648.94	184.265
1649.65	179.494
1650.37	171.5
1651.09	170.396
1651.81	176.291
1652.53	173.186
1653.25	172.526
1653.97	166.644
1654.69	173.872
1655.41	165.768
1656.13	156.552
1656.84	162.781
1657.56	160.12
1658.28	158.46
1659	159.689
1659.72	160.14
1660.44	154.702
1661.16	153.819
1661.87	154.604
1662.59	147.943
1663.31	153.505
1664.03	154.401
1664.74	146.629
1665.46	154.747
1666.18	153.198
1666.9	150.093
1667.61	150.433
1668.33	151.55
1669.05	148.89
1669.77	147.897
1670.48	148.014
1671.2	147.798
1671.92	144.027
1672.63	142.589
1673.35	139.818
1674.07	144.491
1674.78	143.164
1675.5	146.282
1676.21	133.844
1676.93	138.406
1677.65	139.857
1678.36	138.307
1679.08	143.869
1679.79	140.32
1680.51	141.993
1681.22	134.222
1681.94	134.562
1682.66	132.679
1683.37	134.241
1684.09	139.248
1684.8	140.588
1685.52	138.261
1686.23	138.378
1686.95	136.829
1687.66	131.391
1688.38	131.175
1689.09	131.849
1689.8	131.633
1690.52	135.639
1691.23	130.423
1691.95	132.208
1692.66	132.325
1693.37	132.221
1694.09	129.783
1694.8	130.456
1695.52	130.24
1696.23	132.691
1696.94	136.697
1697.66	122.815
1698.37	134.377
1699.08	128.383
1699.8	126.056
1700.51	126.618
1701.22	121.736
1701.94	129.187
1702.65	123.638
1703.36	126.422
1704.07	123.428
1704.79	124.879
1705.5	124.663
1706.21	123.559
1706.92	124.676
1707.63	127.016
1708.35	123.023
1709.06	119.473
1709.77	126.147
1710.48	123.486
1711.19	126.604
1711.9	125.055
1712.62	126.283
1713.33	123.29
1714.04	120.407
1714.75	124.525
1715.46	124.087
1716.17	123.427
1716.88	127.211
1717.59	122.884
1718.3	118.002
1719.02	124.119
1719.73	127.792
1720.44	126.021
1721.15	123.583
1721.86	123.59
1722.57	125.485
1723.28	127.602
1723.99	118.498
1724.7	115.282
1725.41	120.177
1726.12	120.073
1726.83	123.412
1727.54	122.308
1728.25	121.203
1728.96	124.876
1729.66	120.327
1730.37	116.667
1731.08	121.007
1731.79	122.458
1732.5	115.464
1733.21	123.582
1733.92	121.144
1734.63	119.039
1735.33	118.379
1736.04	114.941
1736.75	117.947
1737.46	119.509
1738.17	116.849
1738.88	121.633
1739.58	119.862
1740.29	119.424
1741	122.652
1741.71	118.437
1742.42	116.443
1743.12	118.116
1743.83	117.123
1744.54	125.018
1745.24	118.247
1745.95	119.475
1746.66	113.704
1747.36	118.044
1748.07	116.717
1748.78	114.279
1749.48	119.063
1750.19	117.736
1750.9	117.409
1751.6	110.082
1752.31	115.978
1753.02	111.651
1753.72	113.324
1754.43	114.886
1755.14	113.337
1755.84	110.01
1756.55	111.905
1757.25	114.578
1757.96	109.363
1758.66	113.48
1759.37	114.82
1760.07	109.938
1760.78	116.166
1761.48	113.617
1762.19	111.401
1762.89	108.297
1763.6	115.192
1764.3	113.976
1765.01	112.316
1765.71	109.989
1766.42	115.996
1767.12	113.446
1767.83	117.342
1768.53	106.348
1769.24	116.466
1769.94	115.25
1770.64	112.256
1771.35	113.152
1772.05	110.936
1772.76	108.72
1773.46	108.393
1774.16	109.622
1774.87	112.517
1775.57	109.968
1776.27	107.975
1776.97	109.092
1777.68	101.876
1778.38	110.105
1779.08	109.334
1779.79	110.674
1780.49	110.013
1781.19	112.909
1781.89	111.36
1782.6	107.144
1783.3	102.817
1784	111.046
1784.7	105.719
1785.4	107.392
1786.11	113.843
1786.81	108.183
1787.51	112.189
1788.21	113.084
1788.91	108.535
1789.61	109.431
1790.32	108.77
1791.02	107.11
1791.72	109.117
1792.42	106.345
1793.12	111.129
1793.82	110.469
1794.52	105.476
1795.22	106.149
1795.92	112.044
1796.63	107.828
1797.33	109.724
1798.03	111.063
1798.73	116.625
1799.43	110.299
1800.13	106.861
1800.83	111.756
1801.53	101.318
1802.23	106.88
1802.93	104.442
1803.63	108.115
1804.33	114.01
1805.03	106.239
1805.72	109.69
1806.42	110.474
1807.12	106.481
1807.82	109.043
1808.52	105.827
1809.22	107.722
1809.92	107.395
1810.62	110.957
1811.32	106.63
1812.01	108.526
1812.71	109.088
1813.41	107.205
1814.11	107.434
1814.81	107.551
1815.51	108.113
1816.2	105.231
1816.9	110.126
1817.6	108.799
1818.3	109.806
1819	105.257
1819.69	105.819
1820.39	109.159
1821.09	111.721
1821.79	108.838
1822.48	111.289
1823.18	112.629
1823.88	108.857
1824.57	105.975
1825.27	108.648
1825.97	107.21
1826.66	107.772
1827.36	106.779
1828.06	110.229
1828.75	109.791
1829.45	107.02
1830.14	108.36
1830.84	107.811
1831.54	107.373
1832.23	111.601
1832.93	107.163
1833.62	110.281
1834.32	113.287
1835.01	107.405
1835.71	111.967
1836.41	103.196
1837.1	107.647
1837.8	107.097
1838.49	108.771
1839.19	107.666
1839.88	105.228
1840.58	106.346
1841.27	106.908
1841.97	105.692
1842.66	106.587
1843.36	111.482
1844.05	105.044
1844.74	112.051
1845.44	110.391
1846.13	103.064
1846.83	105.181
1847.52	108.299
1848.21	105.861
1848.91	110.534
1849.6	108.652
1850.29	106.88
1850.99	106.664
1851.68	110.004
1852.37	110.455
1853.07	112.128
1853.76	111.801
1854.45	103.141
1855.15	106.148
1855.84	108.932
1856.53	112.494
1857.23	113.056
1857.92	107.396
1858.61	109.624
1859.3	110.964
1860	108.193
1860.69	111.31
1861.38	110.317
1862.07	112.99
1862.76	114.885
1863.46	111.892
1864.15	110.454
1864.84	106.349
1865.53	107.689
1866.22	106.917
1866.91	110.59
1867.61	114.264
1868.3	108.826
1868.99	109.721
1869.68	114.95
1870.37	110.067
1871.06	111.851
1871.75	111.858
1872.44	108.864
1873.13	111.982
1873.82	114.877
1874.51	112.328
1875.2	110.112
1875.89	109.785
1876.58	108.681
1877.27	110.798
1877.96	113.694
1878.65	109.033
1879.34	112.706
1880.03	111.38
1880.72	114.386
1881.41	105.948
1882.1	112.177
1882.79	111.183
1883.48	106.523
1884.17	109.196
1884.86	112.314
1885.55	112.32
1886.24	113.882
1886.93	108
1887.61	109.673
1888.3	109.901
1888.99	111.352
1889.68	110.025
1890.37	109.587
1891.06	111.927
1891.74	105.489
1892.43	105.385
1893.12	109.28
1893.81	110.175
1894.5	108.293
1895.18	105.966
1895.87	112.306
1896.56	106.09
1897.25	108.43
1897.93	104.658
1898.62	108.665
1899.31	106.893
1899.99	110.678
1900.68	104.573
1901.37	107.468
1902.06	105.808
1902.74	107.148
1903.43	107.488
1904.12	105.494
1904.8	111.056
1905.49	106.396
1906.18	100.513
1906.86	102.742
1907.55	106.415
1908.23	107.755
1908.92	105.539
1909.6	106.435
1910.29	102.997
1910.98	103.447
1911.66	106.009
1912.35	104.794
1913.03	106.8
1913.72	103.695
1914.4	104.257
1915.09	106.153
1915.77	102.381
1916.46	101.943
1917.14	107.617
1917.83	102.29
1918.51	105.963
1919.2	104.969
1919.88	102.865
1920.57	105.204
1921.25	102.433
1921.94	103.439
1922.62	102.779
1923.3	102.786
1923.99	101.125
1924.67	106.132
1925.35	108.027
1926.04	105.145
1926.72	106.151
1927.4	107.824
1928.09	101.386
1928.77	102.726
1929.46	101.177
1930.14	97.6279
1930.82	102.523
1931.5	103.307
1932.19	105.425
1932.87	96.8759
1933.55	100.66
1934.24	104.778
1934.92	104.673
1935.6	103.457
1936.28	102.575
1936.96	104.137
1937.65	97.5877
1938.33	101.261
1939.01	99.9339
1939.69	102.829
1940.38	103.836
1941.06	100.175
1941.74	101.293
1942.42	102.522
1943.1	103.195
1943.78	103.646
1944.46	99.5411
1945.14	103.436
1945.83	101.443
1946.51	98.4493
1947.19	100.9
1947.87	99.9066
1948.55	101.135
1949.23	104.808
1949.91	101.037
1950.59	101.71
1951.27	102.05
1951.95	99.9453
1952.63	100.73
1953.31	105.292
1953.99	99.6313
1954.67	103.86
1955.35	101.2
1956.03	98.2062
1956.71	101.99
1957.39	100.886
1958.07	103.226
1958.75	101.676
1959.43	103.35
1960.11	103.245
1960.79	102.14
1961.47	103.036
1962.15	102.598
1962.82	101.16
1963.5	99.166
1964.18	96.0613
1964.86	100.401
1965.54	104.185
1966.22	104.414
1966.9	104.532
1967.57	98.9824
1968.25	101.433
1968.93	103.551
1969.61	99.3351
1970.29	100.897
1970.96	97.1258
1971.64	99.0211
1972.32	102.472
1973	105.923
1973.67	102.152
1974.35	104.825
1975.03	104.72
1975.7	100.615
1976.38	102.844
1977.06	99.9616
1977.74	101.079
1978.41	100.086
1979.09	103.536
1979.77	102.876
1980.44	102.438
1981.12	100.445
1981.8	101.229
1982.47	107.791
1983.15	102.908
1983.82	102.026
1984.5	99.4769
1985.18	99.0389
1985.85	103.601
1986.53	99.0518
1987.2	104.281
1987.88	104.731
1988.55	100.849
1989.23	103.078
1989.9	99.6396
1990.58	103.535
1991.26	102.208
1991.93	100.881
1992.61	105.332
1993.28	102.45
1993.95	107.789
1994.63	106.463
1995.3	101.691
1995.98	106.475
1996.65	106.815
1997.33	103.044
1998	104.717
1998.68	103.057
1999.35	104.73
2000.02	105.181
2000.7	97.4094
2001.37	101.305
2002.05	101.422
2002.72	103.873
2003.39	102.769
2004.07	103.442
2004.74	105.448
2005.41	106.566
2006.08	104.239
2006.76	100.912
2007.43	102.252
2008.1	106.036
2008.78	104.265
2009.45	106.604
2010.12	99.3885
2010.8	102.395
2011.47	101.957
2012.14	101.963
2012.81	104.748
2013.48	105.976
2014.16	104.983
2014.83	102.878
2015.5	107.551
2016.17	111.002
2016.85	109.12
2017.52	105.793
2018.19	103.799
2018.86	108.806
2019.53	105.145
2020.2	104.485
2020.87	105.047
2021.54	103.943
2022.22	103.505
2022.89	106.178
2023.56	100.295
2024.23	104.746
2024.9	105.086
2025.57	102.537
2026.24	97.321
2026.91	97.4386
2027.58	101.889
2028.25	101.229
2028.92	101.013
2029.59	104.687
2030.26	106.137
2030.93	103.588
2031.6	103.928
2032.27	101.935
2032.94	105.385
2033.61	102.281
2034.28	103.065
2034.95	103.738
2035.62	104.633
2036.29	103.084
2036.96	100.98
2037.62	107.208
2038.29	103.215
2038.96	106.777
2039.63	100.783
2040.3	102.679
2040.97	103.463
2041.64	99.9137
2042.31	106.476
2042.97	105.704
2043.64	101.155
2044.31	103.495
2044.98	102.946
2045.65	106.063
2046.31	106.07
2046.98	97.6319
2047.65	97.3051
2048.32	99.8671
2048.98	98.5402
2049.65	101.213
2050.32	104.331
2050.99	99.2262
2051.65	105.233
2052.32	101.128
2052.99	98.2455
2053.66	105.696
2054.32	102.814
2054.99	99.9315
2055.66	102.716
2056.32	98.2777
2056.99	103.951
2057.65	105.402
2058.32	104.186
2058.99	96.9702
2059.65	98.8655
2060.32	102.205
2060.99	99.5451
2061.65	96.1071
2062.32	100.669
2062.98	106.009
2063.65	99.0153
2064.31	105.355
2064.98	102.584
2065.64	97.4791
2066.31	97.7078
2066.97	101.714
2067.64	99.3873
2068.3	100.394
2068.97	99.0669
2069.64	107.629
2070.3	103.302
2070.96	100.42
2071.63	95.8704
2072.29	98.988
2072.96	96.9944
2073.62	98.3342
2074.29	99.3407
2074.95	101.458
2075.61	104.02
2076.28	99.0267
2076.94	103.366
2077.6	101.262
2078.27	97.8238
2078.93	100.608
2079.6	100.281
2080.26	100.843
2080.92	99.4051
2081.59	98.1893
2082.25	99.6402
2082.91	99.5356
2083.57	99.542
2084.24	97.104
2084.9	100.777
2085.56	102.561
2086.23	97.6789
2086.89	100.908
2087.55	98.3585
2088.21	97.1427
2088.88	98.9269
2089.54	99.0445
2090.2	100.273
2090.86	96.3907
2091.52	98.8416
2092.19	103.181
2092.85	96.5211
2093.51	96.1943
2094.17	100.978
2094.83	94.8738
2095.49	98.4358
2096.15	104.776
2096.81	100.671
2097.48	100.455
2098.14	95.3505
2098.8	98.5792
2099.46	100.141
2100.12	97.9254
2100.78	97.1541
2101.44	102.494
2102.1	101.389
2102.76	99.8401
2103.42	94.4021
2104.08	100.297
2104.74	99.7483
2105.4	99.6436
2106.06	101.761
2106.72	99.101
2107.38	99.1074
2108.04	99.3361
2108.7	99.8981
2109.36	96.6823
2110.02	100.244
2110.68	97.8063
2111.34	93.7016
2112	101.375
2112.66	98.3812
2113.32	97.3876
2113.98	98.3941
2114.64	99.5116
2115.29	102.518
2115.95	99.5245
2116.61	99.8643
2117.27	92.5374
2117.93	98.8772
2118.59	97.8837
2119.24	100.112
2119.9	94.2299
2120.56	96.903
2121.22	96.7983
2121.88	95.027
2122.54	97.7001
2123.19	97.7066
2123.85	100.38
2124.51	96.0528
2125.17	101.504
2125.82	97.6212
2126.48	96.8499
2127.14	100.967
2127.79	95.1961
2128.45	100.314
2129.11	98.5423
2129.76	96.4377
2130.42	97.1108
2131.08	96.2283
2131.73	99.0126
2132.39	95.3523
2133.05	100.692
2133.7	96.5874
2134.36	94.8161
2135.02	95.3781
2135.67	95.0512
2136.33	97.5021
2136.98	98.1752
2137.64	99.2928
2138.3	101.077
2138.95	93.5279
2139.61	97.9788
2140.26	96.3186
2140.92	96.8806
2141.57	97.1093
2142.23	89.8935
2142.88	94.6777
2143.54	95.9064
2144.19	93.135
2144.85	97.697
2145.5	94.0368
2146.16	94.0433
2146.81	99.9386
2147.47	97.3895
2148.12	99.9515
2148.78	98.4024
2149.43	97.5199
2150.08	94.9708
2150.74	97.7551
2151.39	93.3171
2152.04	97.3235
2152.7	96.7744
2153.35	98.4475
2154.01	97.6762
2154.66	98.9048
2155.31	94.1335
2155.97	94.6955
2156.62	99.9242
2157.27	96.0418
2157.93	99.2704
2158.58	98.6102
2159.23	97.7277
2159.89	93.2897
2160.54	91.8517
2161.19	96.3026
2161.84	94.3091
2162.5	94.5378
2163.15	99.0997
2163.8	99.6618
2164.45	96.0015
2165.11	94.6746
2165.76	97.2366
2166.41	103.132
2167.06	99.3606
2167.71	95.0338
2168.37	94.2624
2169.02	95.38
2169.67	98.3864
2170.32	94.3929
2170.97	98.7327
2171.62	93.4058
2172.27	95.0789
2172.92	95.4187
2173.58	98.9807
2174.23	91.3204
2174.88	95.2158
2175.53	101.333
2176.18	92.4509
2176.83	97.7907
2177.48	98.686
2178.13	98.248
2178.78	94.5878
2179.43	98.1498
2180.08	97.2673
2180.73	95.496
2181.38	102.28
2182.03	96.8422
2182.68	95.5154
2183.33	101.522
2183.98	95.6393
2184.63	95.7569
2185.28	93.9856
2185.93	93.4365
2186.58	98.4429
2187.23	91.2271
2187.88	95.1225
2188.53	98.9067
2189.17	95.0242
2189.82	95.5863
2190.47	94.8149
2191.12	97.488
2191.77	97.8278
2192.42	91.8343
2193.07	96.5074
2193.71	95.2967
2194.36	97.8019
2195.01	97.0658
2195.66	98.134
2196.31	102.29
2196.95	95.8054
2197.6	96.3548
2198.25	99.3511
2198.9	96.9448
2199.55	97.0841
2200.19	97.5573
2200.84	98.0402
2201.49	94.3975
2202.14	98.9129
2202.78	97.626
2203.43	95.1018
2204.08	97.0553
2204.72	99.7946
2205.37	98.5063
2206.02	96.1541
2206.66	97.727
2207.31	97.1839
2207.96	95.9805
2208.6	94.6149
2209.25	93.8568
2209.9	98.9769
2210.54	95.367
2211.19	96.757
2211.83	96.5849
2212.48	98.0917
2213.13	97.4276
2213.77	95.599
2214.42	95.3131
2215.06	97.2385
2215.71	98.3365
2216.35	97.2408
2217	98.5225
2217.64	96.2638
2218.29	95.2456
2218.93	97.5854
2219.58	98.0233
2220.22	97.2015
2220.87	96.3812
2221.51	97.5986
2222.16	97.6802
2222.8	97.916
2223.45	95.8784
2224.09	95.5388
2224.73	94.1338
2225.38	96.2785
2226.02	91.8103
2226.67	96.4453
2227.31	97.2846
2227.95	98.9749
2228.6	98.6472
2229.24	96.2299
2229.88	98.2212
2230.53	97.1542
2231.17	97.34
2231.82	97.0447
2232.46	94.6772
2233.1	97.5002
2233.75	95.5724
2234.39	99.1834
2235.03	96.4513
2235.67	94.9181
2236.32	98.8
2236.96	94.7299
2237.6	95.8922
2238.24	96.3792
2238.89	97.0116
2239.53	98.6426
2240.17	96.1416
2240.81	94.1489
2241.45	96.1651
2242.1	97.4931
2242.74	96.643
2243.38	96.6977
2244.02	99.6036
2244.66	98.6818
2245.3	96.4156
2245.95	97.4778
2246.59	95.7303
2247.23	97.227
2247.87	99.2606
2248.51	97.8041
2249.15	95.4513
2249.79	95.1358
2250.43	94.2665
2251.07	93.6401
2251.71	97.9891
2252.36	95.5149
2253	97.6264
2253.64	97.0745
2254.28	98.6446
2254.92	98.5392
2255.56	97.5164
2256.2	99.4975
2256.84	101.079
2257.48	100.752
2258.12	94.9244
2258.76	98.2976
2259.4	99.2688
2260.04	99.5599
2260.67	99.0824
2261.31	101.843
2261.95	100.127
2262.59	97.8745
2262.71	97.4354
2263.37	101.553
2264.03	96.5595
2264.68	104.566
2265.34	98.7948
2265.99	103.69
2266.65	101.919
2267.3	101.925
2267.96	100.154
2268.62	100.272
2269.27	97.0561
2269.93	103.063
2270.58	98.2914
2271.24	98.7424
2271.89	101.86
2272.55	99.8665
2273.2	101.762
2273.86	93.9907
2274.51	99.1083
2275.16	98.4482
2275.82	100.788
2276.47	104.795
2277.13	104.912
2277.78	101.252
2278.44	102.925
2279.09	103.043
2279.74	101.494
2280.4	100.611
2281.05	103.062
2281.71	104.069
2282.36	100.409
2283.01	100.304
2283.67	103.866
2284.32	100.206
2284.97	99.1016
2285.63	100.775
2286.28	102.448
2286.93	104.01
2287.59	95.2388
2288.24	101.468
2288.89	103.474
2289.54	104.036
2290.2	104.043
2290.85	101.383
2291.5	106.945
2292.15	98.84
2292.81	98.1799
2293.46	103.742
2294.11	103.637
2294.76	105.311
2295.42	103.65
2296.07	106.768
2296.72	101.997
2297.37	109.114
2298.02	104.565
2298.67	103.683
2299.33	108.578
2299.98	103.585
2300.63	107.036
2301.28	101.376
2301.93	102.271
2302.58	100.389
2303.23	100.84
2303.88	106.735
2304.53	107.964
2305.19	105.637
2305.84	97.6437
2306.49	104.761
2307.14	99.879
2307.79	102.663
2308.44	105.336
2309.09	105.121
2309.74	102.461
2310.39	106.134
2311.04	108.807
2311.69	103.591
2312.34	106.376
2312.99	104.16
2313.64	111.944
2314.29	112.395
2314.94	102.402
2315.59	104.075
2316.24	105.193
2316.89	103.088
2317.53	105.206
2318.18	112.101
2318.83	112.33
2319.48	115.447
2320.13	111.454
2320.78	108.349
2321.43	105.578
2322.08	106.585
2322.73	109.036
2323.37	107.153
2324.02	106.826
2324.67	105.277
2325.32	107.617
2325.97	110.068
2326.61	114.186
2327.26	116.192
2327.91	127.977
2328.56	120.205
2329.21	121.212
2329.85	118.33
2330.5	113.78
2331.15	113.009
2331.8	106.571
2332.44	109.911
2333.09	110.14
2333.74	108.702
2334.38	109.597
2335.03	110.493
2335.68	111.055
2336.33	109.395
2336.97	107.957
2337.62	113.852
2338.26	114.637
2338.91	115.976
2339.56	105.761
2340.2	112.545
2340.85	114.552
2341.5	112.225
2342.14	110.565
2342.79	113.904
2343.43	110.8
2344.08	117.584
2344.73	110.924
2345.37	113.708
2346.02	115.604
2346.66	112.277
2347.31	117.839
2347.95	111.401
2348.6	114.963
2349.24	111.192
2349.89	117.532
2350.53	114.538
2351.18	114.878
2351.82	110.44
2352.47	112.558
2353.11	115.787
2353.76	118.46
2354.4	117.466
2355.05	117.695
2355.69	120.924
2356.33	117.041
2356.98	117.492
2357.62	116.832
2358.27	119.617
2358.91	118.512
2359.55	113.63
2360.2	122.414
2360.84	111.643
2361.49	117.871
2362.13	120.656
2362.77	116.218
2363.42	120.78
2364.06	122.897
2364.7	121.126
2365.35	116.466
2365.99	120.25
2366.63	124.924
2367.28	118.486
2367.92	119.492
2368.56	120.165
2369.2	122.172
2369.84	120.734
2370.49	125.074
2371.13	122.414
2371.77	125.642
2372.41	127.538
2373.06	123.1
2373.7	119.44
2374.34	123.335
2374.98	123.564
2375.62	125.126
2376.27	127.244
2376.91	122.917
2377.55	129.035
2378.19	124.708
2378.83	124.603
2379.47	125.832
2380.11	125.172
2380.76	124.734
2381.4	129.629
2382.04	128.747
2382.68	125.198
2383.32	128.649
2383.96	130.544
2384.6	128.329
2385.24	125.557
2385.88	134.897
2386.52	128.904
2387.16	134.799
2387.8	134.139
2388.44	130.59
2389.08	129.93
2389.72	127.047
2390.36	132.276
2391	130.06
2391.64	131.289
2392.28	136.296
2392.92	131.302
2393.56	140.642
2394.2	135.649
2394.84	136.655
2395.48	134.995
2396.12	134.557
2396.76	138.675
2397.4	132.126
2398.03	142.688
2398.68	133.694
2399.31	136.479
2399.95	141.93
2400.59	139.825
2401.23	144.165
2401.87	132.616
2402.51	143.622
2403.14	144.962
2403.78	145.191
2404.42	139.086
2405.06	142.759
2405.7	145.099
2406.33	143.884
2406.97	148.557
2407.61	146.674
2408.25	147.348
2408.89	142.243
2409.52	143.361
2410.16	144.923
2410.8	150.04
2411.43	146.825
2412.07	146.387
2412.71	150.171
2413.35	149.289
2413.98	152.184
2414.62	152.746
2415.26	153.086
2415.89	157.315
2416.53	158.766
2417.17	160.328
2417.8	154.89
2418.44	158.341
2419.08	160.014
2419.71	160.132
2420.35	161.472
2420.98	160.367
2421.62	160.04
2422.26	164.713
2422.89	163.72
2423.53	164.06
2424.16	169.622
2424.8	167.073
2425.43	174.19
2426.07	167.641
2426.7	168.426
2427.34	167.877
2427.97	170.328
2428.61	167.334
2429.24	174.119
2429.88	181.569
2430.51	177.354
2431.15	171.471
2431.78	171.811
2432.42	171.929
2433.05	175.269
2433.69	169.831
2434.32	176.393
2434.96	174.288
2435.59	177.628
2436.22	177.746
2436.86	175.975
2437.49	178.314
2438.12	182.543
2438.76	176.661
2439.39	185.334
2440.03	180.452
2440.66	178.68
2441.29	182.02
2441.93	180.471
2442.56	181.7
2443.19	179.818
2443.82	177.713
2444.46	182.053
2445.09	172.504
2445.72	182.066
2446.36	178.961
2446.99	183.635
2447.62	187.641
2448.26	182.981
2448.89	181.765
2449.52	178.772
2450.15	181.112
2450.78	177.563
2451.42	178.347
2452.05	186.798
2452.68	171.915
2453.31	176.033
2453.94	177.151
2454.58	175.157
2455.21	171.275
2455.84	172.281
2456.47	165.288
2457.1	173.072
2457.73	169.19
2458.36	177.196
2459	167.647
2459.63	175.765
2460.26	175.327
2460.89	168.445
2461.52	170.896
2462.15	176.569
2462.78	167.242
2463.41	164.804
2464.04	170.811
2464.67	166.262
2465.3	169.601
2465.93	172.719
2466.56	169.17
2467.19	171.399
2467.82	166.072
2468.45	168.301
2469.08	166.196
2469.71	167.314
2470.34	163.543
2470.97	162.105
2471.6	168.889
2472.23	165.007
2472.86	164.458
2473.49	165.686
2474.12	161.582
2474.75	160.366
2475.38	161.706
2476	160.823
2476.63	165.719
2477.26	162.725
2477.89	158.954
2478.52	158.85
2479.15	163.301
2479.78	157.085
2480.4	164.202
2481.03	158.209
2481.66	161.993
2482.29	156.222
2482.92	159.34
2483.55	158.791
2484.17	156.908
2484.8	158.137
2485.43	153.921
2486.06	165.817
2486.68	153.49
2487.31	152.941
2487.94	150.614
2488.57	162.065
2489.19	159.738
2489.82	150.745
2490.45	155.64
2491.07	154.758
2491.7	157.875
2492.33	155.993
2492.96	154.111
2493.58	156.451
2494.21	153.124
2494.84	158.019
2495.46	154.47
2496.09	162.699
2496.72	155.594
2497.34	159.045
2497.97	160.718
2498.59	156.058
2499.22	148.954
2499.84	157.182
2500.47	150.745
2501.1	158.529
2501.72	158.535
2502.35	152.431
2502.97	152.326
2503.6	151.666
2504.22	151.006
2504.85	148.679
2505.47	150.352
2506.1	152.692
2506.73	153.921
2507.35	151.15
2507.97	152.156
2508.6	157.385
2509.22	149.614
2509.85	151.509
2510.47	152.627
2511.1	151.078
2511.72	158.084
2512.35	157.98
2512.97	153.653
2513.59	149.993
2514.22	154.11
2514.84	155.672
2515.47	160.123
2516.09	155.463
2516.71	152.248
2517.34	152.254
2517.96	151.372
2518.58	149.934
2519.21	155.829
2519.83	158.947
2520.45	155.509
2521.08	153.96
2521.7	157.3
2522.32	152.195
2522.95	149.868
2523.57	157.319
2524.19	148.992
2524.81	152.777
2525.44	155.228
2526.06	157.79
2526.68	157.796
2527.3	152.914
2527.93	157.143
2528.55	149.371
2529.17	152.378
2529.79	155.829
2530.41	154.391
2531.04	156.509
2531.66	159.626
2532.28	158.3
2532.9	154.639
2533.52	156.646
2534.15	156.208
2534.77	152.103
2535.39	155.11
2536.01	159.116
2536.63	156.234
2537.25	161.018
2537.87	155.358
2538.49	152.254
2539.11	157.482
2539.73	153.6
2540.36	157.495
2540.98	163.946
2541.6	159.842
2542.22	150.959
2542.84	157.744
2543.46	161.417
2544.08	161.979
2544.7	156.874
2545.32	155.659
2545.94	159.221
2546.56	167.227
2547.18	160.012
2547.8	153.24
2548.42	159.247
2549.04	158.809
2549.66	162.371
2550.28	162.933
2550.89	158.495
2551.51	158.835
2552.13	162.286
2552.75	157.515
2553.37	166.855
2553.99	155.083
2554.61	160.09
2555.23	159.652
2555.85	163.214
2556.46	167.109
2557.08	161.56
2557.7	164.011
2558.32	163.018
2558.94	166.247
2559.56	165.142
2560.17	166.815
2560.79	168.044
2561.41	166.273
2562.03	164.057
2562.65	163.286
2563.26	165.515
2563.88	166.966
2564.5	173.972
2565.12	167.756
2565.73	172.318
2566.35	169.881
2566.97	164.998
2567.59	170.894
2568.2	165.678
2568.82	166.018
2569.44	171.913
2570.05	169.475
2570.67	176.26
2571.29	175.711
2571.9	167.717
2572.52	174.057
2573.14	175.063
2573.75	176.959
2574.37	176.632
2574.99	176.861
2575.6	179.312
2576.22	176.318
2576.83	178.325
2577.45	172.554
2578.07	178.782
2578.68	178.011
2579.3	179.573
2579.91	182.691
2580.53	179.586
2581.14	189.259
2581.76	184.044
2582.37	180.939
2582.99	182.612
2583.6	186.174
2584.22	183.07
2584.83	183.076
2585.45	191.194
2586.06	189.312
2586.68	188.651
2587.29	193.769
2587.91	194.331
2588.52	188.56
2589.14	193.233
2589.75	189.795
2590.36	197.135
2590.98	196.697
2591.59	195.37
2592.21	194.043
2592.82	204.717
2593.43	193.279
2594.05	198.619
2594.66	202.625
2595.27	199.965
2595.89	195.971
2596.5	201.311
2597.12	202.984
2597.73	205.213
2598.34	202.22
2598.95	202.449
2599.57	205.122
2600.18	208.573
2600.79	213.135
2601.41	211.697
2602.02	212.481
2602.63	212.488
2603.24	215.939
2603.86	221.39
2604.47	218.174
2605.08	225.514
2605.69	226.743
2606.31	234.638
2606.92	222.533
2607.53	227.762
2608.14	227.213
2608.75	225.775
2609.36	236.448
2609.98	234.788
2610.59	236.35
2611.2	237.468
2611.81	239.919
2612.42	242.481
2613.03	248.265
2613.65	257.494
2614.26	255.167
2614.87	250.285
2615.48	244.402
2616.09	256.742
2616.7	255.971
2617.31	255.866
2617.92	256.206
2618.53	258.657
2619.14	273.442
2619.75	268.893
2620.36	269.455
2620.97	278.906
2621.58	280.134
2622.19	278.585
2622.8	284.258
2623.41	293.154
2624.02	291.049
2624.63	286.723
2625.24	297.507
2625.85	304.624
2626.46	313.298
2627.07	306.638
2627.68	313.2
2628.29	314.651
2628.9	322.324
2629.51	326.219
2630.12	330.337
2630.73	335.121
2631.33	337.905
2631.94	339.467
2632.55	347.363
2633.16	345.147
2633.77	356.376
2634.38	370.494
2634.99	365.278
2635.59	362.284
2636.2	381.513
2636.81	380.964
2637.42	378.971
2638.03	389.31
2638.64	398.539
2639.24	395.212
2639.85	412.552
2640.46	414.67
2641.07	409.232
2641.67	426.794
2642.28	444.023
2642.89	446.585
2643.5	448.369
2644.1	454.931
2644.71	455.271
2645.32	477.055
2645.92	468.062
2646.53	475.957
2647.14	483.186
2647.74	495.526
2648.35	521.866
2648.96	520.428
2649.57	534.101
2650.17	541.33
2650.78	549.225
2651.38	540.121
2651.99	557.794
2652.6	569.245
2653.2	579.807
2653.81	586.813
2654.41	600.709
2655.02	610.493
2655.63	630.166
2656.23	633.839
2656.84	643.402
2657.44	661.297
2658.05	663.97
2658.65	669.977
2659.26	682.761
2659.86	697.101
2660.47	705.441
2661.07	712.669
2661.68	740.454
2662.28	731.571
2662.89	731.134
2663.49	755.585
2664.1	776.924
2664.7	789.82
2665.31	788.271
2665.91	810.388
2666.52	837.173
2667.12	817.29
2667.72	839.519
2668.33	861.97
2668.93	877.865
2669.54	876.872
2670.14	897.656
2670.74	903.774
2671.35	921.003
2671.95	921.898
2672.55	933.571
2673.16	954.356
2673.76	968.251
2674.36	973.369
2674.97	969.708
2675.57	988.826
2676.17	986.944
2676.78	1002.84
2677.38	1023.51
2677.98	1013.3
2678.59	1039.3
2679.19	1043.42
2679.79	1042.65
2680.39	1065.1
2681	1051
2681.6	1048
2682.2	1061.56
2682.8	1059.57
2683.4	1043.8
2684.01	1056.36
2684.61	1063.04
2685.21	1064.71
2685.81	1057.27
2686.41	1048.39
2687.02	1050.95
2687.62	1060.4
2688.22	1049.19
2688.82	1048.97
2689.42	1041.53
2690.02	1018.2
2690.62	1040.54
2691.22	1024.33
2691.83	990.669
2692.43	990.786
2693.03	989.126
2693.63	967.8
2694.23	952.25
2694.83	952.368
2695.43	927.597
2696.03	924.715
2696.63	909.054
2697.23	887.061
2697.83	882.401
2698.43	857.407
2699.03	862.303
2699.63	843.087
2700.23	838.649
2700.83	810.656
2701.43	814.551
2702.03	800.446
2702.63	785.897
2703.23	760.571
2703.83	755.133
2704.43	751.028
2705.03	727.146
2705.63	734.819
2706.23	700.825
2706.83	713.388
2707.43	689.172
2708.02	665.178
2708.62	647.852
2709.22	642.414
2709.82	639.754
2710.42	603.427
2711.02	605.989
2711.62	595.884
2712.21	588.224
2712.81	575.786
2713.41	571.015
2714.01	561.688
2714.61	552.917
2715.2	539.923
2715.8	531.263
2716.4	523.381
2717	507.276
2717.6	504.949
2718.19	498.956
2718.79	489.185
2719.39	483.858
2719.98	473.42
2720.58	462.76
2721.18	456.1
2721.78	432.995
2722.37	437.335
2722.97	433.453
2723.57	422.237
2724.16	406.021
2724.76	404.361
2725.36	400.59
2725.95	390.263
2726.55	389.27
2727.15	384.387
2727.74	371.616
2728.34	368.956
2728.94	367.629
2729.53	360.302
2730.13	346.42
2730.72	351.426
2731.32	338.877
2731.91	338.55
2732.51	329.224
2733.11	333.564
2733.7	317.459
2734.3	314.577
2734.89	314.694
2735.49	308.701
2736.08	307.596
2736.68	295.714
2737.27	304.165
2737.87	293.505
2738.46	284.956
2739.06	289.518
2739.65	277.746
2740.25	275.086
2740.84	273.537
2741.44	272.988
2742.03	276.217
2742.63	257.001
2743.22	260.008
2743.81	262.014
2744.41	252.799
2745	263.25
2745.6	244.367
2746.19	250.707
2746.79	244.936
2747.38	235.387
2747.97	238.504
2748.57	243.066
2749.16	239.184
2749.75	233.746
2750.35	229.975
2750.94	237.092
2751.53	232.099
2752.13	218.217
2752.72	223.89
2753.31	224.452
2753.9	224.347
2754.5	214.132
2755.09	216.916
2755.68	216.478
2756.28	209.707
2756.87	212.713
2757.46	211.498
2758.05	209.504
2758.64	204.622
2759.24	208.962
2759.83	200.079
2760.42	206.752
2761.01	205.092
2761.6	196.321
2762.2	200.105
2762.79	202.334
2763.38	198.785
2763.97	190.569
2764.56	194.687
2765.16	195.805
2765.75	189.144
2766.34	187.262
2766.93	190.824
2767.52	191.275
2768.11	190.282
2768.7	182.51
2769.29	185.85
2769.88	186.523
2770.48	180.62
2771.06	184.11
2771.66	186.222
2772.25	181.241
2772.84	181.169
2773.43	173.365
2774.02	180.863
2774.61	177.006
2775.2	169.606
2775.79	173.565
2776.38	176.287
2776.97	173.004
2777.56	170.143
2778.15	170.375
2778.74	166.342
2779.33	175.238
2779.91	172.49
2780.51	171.749
2781.09	168.544
2781.68	173.712
2782.27	168.838
2782.86	165.177
2783.45	163.565
2784.04	168.36
2784.63	166.263
2785.22	162.793
2785.81	166.436
2786.39	167.558
2786.98	165.888
2787.57	162.89
2788.16	161.222
2788.75	163.155
2789.34	165.599
2789.93	158.366
2790.51	163.777
2791.1	164.798
2791.69	158.678
2792.28	159.58
2792.86	156.124
2793.45	158.786
2794.04	157.882
2794.63	156.416
2795.22	157.543
2795.8	157.817
2796.39	160.549
2796.98	155.373
2797.56	154.814
2798.15	156.011
2798.74	161.095
2799.32	159.207
2799.91	154.3
2800.5	156.534
2801.09	154.394
2801.67	154.163
2802.26	157.123
2802.84	153.557
2803.43	155.06
2804.02	155.916
2804.6	155.308
2805.19	153.721
2805.78	153.935
2806.36	152.807
2806.95	149.927
2807.53	148.054
2808.12	150.368
2808.71	150.972
2809.29	149.86
2809.88	148.998
2810.46	152.378
2811.05	149.995
2811.63	149.279
2812.22	148.822
2812.8	148.808
2813.39	150.27
2813.97	149.756
2814.56	145.097
2815.14	146.065
2815.73	147.28
2816.31	146.817
2816.9	145.232
2817.48	145.977
2818.07	151.892
2818.65	149.121
2819.23	153.305
2819.82	151.678
2820.4	146.314
2820.99	148.627
2821.57	146.925
2822.16	147.61
2822.74	150.005
2823.32	144.893
2823.91	144.283
2824.49	146.844
2825.07	150.208
2825.66	144.982
2826.24	146.807
2826.82	149.514
2827.41	148.061
2827.99	145.041
2828.57	144.9
2829.16	141.963
2829.74	140.462
2830.32	143.078
2830.91	145.411
2831.21	145.678
2831.81	146.675
2832.41	147.228
2833.01	143.004
2833.61	148.113
2834.2	148.888
2834.8	142.774
2835.4	150.772
2836	145.881
2836.6	148.101
2837.2	141.209
2837.8	142.874
2838.39	149.76
2838.99	141.425
2839.59	147.533
2840.19	148.309
2840.79	149.417
2841.38	144.637
2841.98	139.746
2842.58	148.633
2843.18	141.741
2843.77	140.628
2844.37	146.848
2844.97	146.179
2845.57	149.843
2846.16	145.73
2846.76	136.505
2847.36	141.725
2847.95	143.5
2848.55	148.498
2849.15	146.051
2849.75	148.938
2850.34	147.157
2850.94	145.711
2851.54	143.153
2852.13	147.595
2852.73	149.481
2853.32	136.257
2853.92	147.365
2854.52	135.141
2855.11	141.583
2855.71	147.803
2856.3	141.689
2856.9	142.131
2857.5	141.462
2858.09	143.682
2858.69	146.013
2859.28	140.122
2859.88	149.453
2860.48	141.228
2861.07	145.893
2861.67	145.112
2862.26	148.888
2862.86	145.33
2863.45	144.994
2864.05	140.992
2864.64	146.878
2865.24	142.209
2865.83	145.207
2866.43	146.427
2867.02	142.202
2867.62	147.422
2868.21	144.42
2868.8	141.751
2869.4	148.859
2869.99	150.413
2870.59	144.744
2871.18	147.519
2871.77	149.628
2872.37	146.07
2872.96	147.29
2873.56	147.287
2874.15	147.729
2874.74	145.283
2875.34	150.947
2875.93	149.722
2876.52	150.053
2877.12	149.606
2877.71	150.826
2878.3	142.157
2878.9	149.044
2879.49	148.041
2880.08	152.928
2880.68	146.925
2881.27	153.368
2881.86	153.921
2882.46	146.474
2883.05	148.805
2883.64	159.358
2884.23	147.578
2884.82	154.242
2885.42	150.907
2886.01	149.238
2886.6	150.457
2887.19	155.455
2887.79	149.008
2888.38	153.45
2888.97	151.67
2889.56	161.223
2890.15	158.777
2890.74	158.885
2891.34	159.883
2891.93	154.436
2892.52	158.434
2893.11	153.987
2893.7	161.762
2894.29	160.093
2894.89	160.646
2895.48	156.866
2896.07	155.531
2896.66	163.195
2897.25	167.193
2897.84	158.412
2898.43	160.966
2899.02	164.741
2899.61	161.961
2900.2	161.736
2900.79	164.734
2901.38	166.398
2901.97	167.84
2902.56	162.616
2903.15	166.28
2903.74	167.055
2904.33	170.164
2904.92	170.94
2905.51	168.826
2906.1	170.713
2906.69	163.599
2907.28	165.597
2907.87	170.483
2908.46	168.592
2909.05	170.367
2909.64	171.143
2910.23	169.363
2910.82	172.36
2911.41	168.136
2912	169.8
2912.58	178.131
2913.17	174.24
2913.76	172.571
2914.35	170.235
2914.94	171.344
2915.53	177.452
2916.12	175.561
2916.71	176.892
2917.29	173.334
2917.88	174.221
2918.47	170.441
2919.06	177.772
2919.65	176.325
2920.23	177.656
2920.82	181.987
2921.41	175.984
2922	177.315
2922.58	178.091
2923.17	174.533
2923.76	170.419
2924.35	171.084
2924.93	173.415
2925.52	177.412
2926.11	170.41
2926.7	174.074
2927.28	179.183
2927.87	171.958
2928.46	182.956
2929.05	177.954
2929.63	165.173
2930.22	171.949
2930.8	175.169
2931.39	170.5
2931.98	168.831
2932.57	172.495
2933.15	176.715
2933.74	173.157
2934.32	171.266
2934.91	172.041
2935.5	175.372
2936.08	169.481
2936.67	169.701
2937.25	162.143
2937.84	171.696
2938.42	173.138
2939.01	164.58
2939.6	169.355
2940.18	160.909
2940.77	161.128
2941.35	167.459
2941.94	161.457
2942.52	159.566
2943.11	161.23
2943.69	165.561
2944.28	166.336
2944.86	164.334
2945.45	159.887
2946.03	162.885
2946.62	164.883
2947.2	158.214
2947.79	159.211
2948.37	162.431
2948.95	156.429
2949.54	155.093
2950.12	156.868
2950.71	158.644
2951.29	154.419
2951.88	152.306
2952.46	154.97
2953.04	151.412
2953.63	154.187
2954.21	147.185
2954.79	151.405
2955.38	145.736
2955.96	146.511
2956.54	150.176
2957.13	143.951
2957.71	145.838
2958.29	150.502
2958.88	147.388
2959.46	148.83
2960.04	146.606
2960.63	142.159
2961.21	142.268
2961.79	141.821
2962.37	136.708
2962.96	137.816
2963.54	143.369
2964.12	135.034
2964.7	135.587
2965.29	136.362
2965.87	145.36
2966.45	138.58
2967.03	135.8
2967.61	132.797
2968.2	132.239
2968.78	137.126
2969.36	133.79
2969.94	132.343
2970.52	129.23
2971.1	129.228
2971.69	131.114
2972.27	128.001
2972.85	129.443
2973.43	129.329
2974.01	129.993
2974.59	129.436
2975.17	126.655
2975.76	125.431
2976.34	122.54
2976.92	124.093
2977.5	123.313
2978.08	127.644
2978.66	120.975
2979.24	125.639
2979.82	126.303
2980.4	126.412
2980.98	126.965
2981.56	124.074
2982.14	124.183
2982.72	117.402
2983.3	119.067
2983.88	117.842
2984.46	116.951
2985.04	115.949
2985.62	121.946
2986.2	117.61
2986.78	113.608
2987.36	118.939
2987.94	113.603
2988.52	118.379
2989.1	115.932
2989.68	116.374
2990.26	111.483
2990.84	111.258
2991.42	113.478
2991.99	111.142
2992.57	113.362
2993.15	106.804
2993.73	113.135
2994.31	111.133
2994.89	115.575
2995.47	111.684
2996.04	108.459
2996.62	114.679
2997.2	112.121
2997.78	112.785
2998.36	111.894
2998.93	109.447
2999.51	107.889
3000.09	115.22
3000.67	109.329
3001.25	111.327
3001.82	110.769
3002.4	111.655
3002.98	113.875
3003.56	112.206
3004.13	110.426
3004.71	112.09
3005.29	104.866
3005.87	106.419
3006.44	112.861
3007.02	108.97
3007.6	106.634
3008.17	99.4094
3008.75	101.074
3009.33	106.849
3009.9	105.069
3010.48	107.178
3011.06	105.953
3011.63	108.84
3012.21	107.171
3012.79	109.39
3013.36	106.055
3013.94	106.052
3014.51	109.494
3015.09	99.8254
3015.67	104.934
3016.24	105.487
3016.82	107.263
3017.39	100.483
3017.97	102.925
3018.55	101.256
3019.12	107.364
3019.7	101.695
3020.27	105.693
3020.85	103.913
3021.42	103.133
3022	99.4637
3022.57	106.35
3023.15	103.57
3023.72	106.457
3024.3	106.232
3024.87	109.118
3025.45	105.672
3026.02	107.669
3026.59	102.334
3027.17	104.665
3027.74	101.996
3028.32	103.327
3028.89	105.435
3029.47	102.544
3030.04	102.319
3030.61	102.761
3031.19	100.537
3031.76	98.4234
3032.34	102.199
3032.91	101.308
3033.49	99.9719
3034.06	103.081
3034.63	102.856
3035.2	101.631
3035.78	101.74
3036.35	99.5156
3036.93	102.735
3037.5	100.844
3038.07	97.5085
3038.64	100.395
3039.22	94.2815
3039.79	98.0569
3040.36	104.721
3040.94	99.83
3041.51	106.828
3042.08	100.381
3042.65	98.2673
3043.23	101.709
3043.8	102.818
3044.37	99.4824
3044.94	101.702
3045.52	98.3666
3046.09	100.586
3046.66	98.9174
3047.23	99.915
3047.8	103.468
3048.38	97.4659
3048.95	100.797
3049.52	100.572
3050.09	101.459
3050.66	101.679
3051.23	98.3429
3051.8	103.785
3052.38	100.005
3052.95	96.3358
3053.52	93.3334
3054.09	105.664
3054.66	98.8843
3055.23	97.2152
3055.8	99.5462
3056.37	101.988
3056.94	99.6526
3057.51	95.7613
3058.08	97.5367
3058.65	95.0899
3059.22	95.6431
3059.8	96.8629
3060.37	99.6384
3060.94	95.8582
3061.51	93.967
3062.08	96.6313
3062.65	98.6289
3063.22	96.1821
3063.79	101.735
3064.36	101.955
3064.92	103.619
3065.49	95.9504
3066.06	99.3925
3066.63	96.9456
3067.2	98.2766
3067.77	98.3854
3068.34	94.9386
3068.91	99.3806
3069.48	104.6
3070.05	92.0426
3070.62	92.0402
3071.19	99.7045
3071.76	99.0355
3072.32	98.5886
3072.89	92.8085
3073.46	103.362
3074.03	97.2482
3074.6	99.1347
3075.17	96.2435
3075.73	99.13
3076.3	94.461
3076.87	94.3475
3077.44	97.9007
3078.01	95.6761
3078.58	93.7848
3079.14	97.0047
3079.71	98.3356
3080.28	96.1111
3080.85	100.442
3081.42	98.4396
3081.98	100.66
3082.55	94.9905
3083.12	95.7659
3083.68	101.097
3084.25	99.9834
3084.82	99.6477
3085.39	101.423
3085.95	97.4207
3086.52	98.3072
3087.09	95.5271
3087.65	96.6358
3088.22	97.6335
3088.79	96.7422
3089.35	98.5176
3089.92	95.6264
3090.49	99.7351
3091.05	102.622
3091.62	98.0637
3092.18	97.2836
3092.75	94.7256
3093.32	94.0566
3093.88	95.6098
3094.45	92.9408
3095.02	96.9384
3095.58	96.7138
3096.15	98.4892
3096.71	94.8202
3097.28	95.4845
3097.84	95.371
3098.41	95.9242
3098.97	95.9218
3099.54	100.253
3100.1	95.3615
3100.67	97.248
3101.23	96.6901
3101.8	96.1322
3102.36	99.6854
3102.93	92.683
3103.49	95.4584
3104.06	98.0116
3104.62	96.787
3105.19	98.118
3105.75	104.893
3106.32	100.002
3106.88	96.8887
3107.45	102.331
3108.01	101.439
3108.57	95.9927
3109.14	97.4347
3109.7	94.5435
3110.27	93.5411
3110.83	96.2054
3111.39	95.4253
3111.96	96.6451
3112.52	98.3094
3113.08	94.4182
3113.65	96.638
3114.21	96.7468
3114.77	96.6333
3115.34	96.9643
3115.9	97.5174
3116.46	97.1818
3117.03	96.0683
3117.59	96.7326
3118.15	98.9524
3118.72	98.3945
3119.28	99.5032
3119.84	99.1675
3120.4	98.4985
3120.97	97.6073
3121.53	98.8271
3122.09	98.9359
3122.65	94.489
3123.22	99.3756
3123.78	93.4843
3124.34	98.1486
3124.9	96.7018
3125.46	99.9216
3126.03	98.8082
3126.59	99.6947
3127.15	103.359
3127.71	99.3566
3128.27	98.2431
3128.83	96.0185
3129.4	102.238
3129.96	95.236
3130.52	100.678
3131.08	93.7869
3131.64	98.34
3132.2	100.56
3132.76	102.002
3133.32	100.444
3133.89	99.9972
3134.45	99.4393
3135.01	99.8814
3135.57	100.879
3136.13	103.654
3136.69	95.7632
3137.25	96.7608
3137.81	104.203
3138.37	105.534
3138.93	98.9759
3139.49	100.418
3140.05	106.86
3140.61	101.08
3141.17	100.855
3141.73	101.853
3142.29	99.0728
3142.85	98.2927
3143.41	103.513
3143.97	102.51
3144.53	102.952
3145.09	104.617
3145.65	102.725
3146.21	101.074
3146.77	104.644
3147.32	96.4368
3147.88	105.674
3148.44	107.467
3149	100.482
3149.56	101.83
3150.12	105.178
3150.68	107.749
3151.24	101.986
3151.8	104.779
3152.35	103.905
3152.91	99.5862
3153.47	100.823
3154.03	106.949
3154.59	103.52
3155.15	107.979
3155.7	106.994
3156.26	102.787
3156.82	102.58
3157.38	101.372
3157.94	102.943
3158.49	100.291
3159.05	105.973
3159.61	104.21
3160.17	102.447
3160.72	108.129
3161.28	106.366
3161.84	96.603
3162.4	97.0624
3162.95	106.188
3163.51	100.203
3164.07	104.663
3164.62	105.122
3165.18	103.026
3165.74	101.708
3166.3	103.389
3166.85	101.515
3167.41	102.308
3167.97	99.7674
3168.52	104.782
3169.08	101.575
3169.63	99.59
3170.19	106.272
3170.75	101.175
3171.3	101.079
3171.86	102.427
3172.41	104.665
3172.97	99.9018
3173.53	100.139
3174.08	106.154
3174.64	105.28
3175.19	103.85
3175.75	103.643
3176.3	102.991
3176.86	105.673
3177.41	102.91
3177.97	102.147
3178.53	106.273
3179.08	100.4
3179.63	105.637
3180.19	104.985
3180.74	106.333
3181.3	105.348
3181.85	104.919
3182.41	104.489
3182.96	104.393
3183.52	108.852
3184.07	108.312
3184.63	105.216
3185.18	104.453
3185.74	103.023
3186.29	108.372
3186.84	103.72
3187.4	103.957
3187.95	105.527
3188.51	108.209
3189.06	105.002
3189.61	107.906
3190.17	105.809
3190.72	104.491
3191.27	107.617
3191.83	105.188
3192.38	109.98
3192.93	110.329
3193.49	104.899
3194.04	110.025
3194.59	108.151
3195.15	112.722
3195.7	111.07
3196.25	111.529
3196.81	112.544
3197.36	107.893
3197.91	109.13
3198.46	107.145
3199.02	114.604
3199.57	112.063
3200.12	113.967
3200.67	110.316
3201.23	111.886
3201.78	111.234
3202.33	109.916
3202.88	117.153
3203.43	113.612
3203.99	116.294
3204.54	114.642
3205.09	116.991
3205.64	115.117
3206.19	121.576
3206.74	118.813
3207.3	124.717
3207.85	115.288
3208.4	124.747
3208.95	124.762
3209.5	125.11
3210.05	119.681
3210.6	125.251
3211.15	123.044
3211.71	128.614
3212.26	126.963
3212.81	131.866
3213.36	130.77
3213.91	131.119
3214.46	132.578
3215.01	130.26
3215.56	139.83
3216.11	133.178
3216.66	127.082
3217.21	132.875
3217.76	140.001
3218.31	138.683
3218.86	135.142
3219.41	137.046
3219.96	136.95
3220.51	147.076
3221.06	142.313
3221.61	141.994
3222.16	143.676
3222.71	139.58
3223.26	145.039
3223.81	145.832
3224.36	141.291
3224.91	140.64
3225.45	140.766
3226	142.892
3226.55	141.684
3227.1	147.144
3227.65	145.048
3228.2	145.729
3228.75	142.522
3229.3	139.092
3229.85	143.218
3230.39	142.678
3230.94	142.137
3231.49	144.93
3232.04	137.167
3232.59	136.515
3233.13	137.753
3233.68	137.545
3234.23	136.227
3234.78	135.242
3235.33	131.479
3235.88	125.272
3236.42	129.064
3236.97	131.524
3237.52	126.205
3238.07	126.554
3238.61	127.346
3239.16	120.028
3239.71	124.265
3240.25	122.169
3240.8	119.962
3241.35	120.866
3241.9	116.436
3242.44	117.673
3242.99	118.577
3243.54	115.481
3244.08	115.496
3244.63	111.844
3245.18	109.526
3245.72	110.43
3246.27	110.333
3246.82	107.015
3247.36	109.252
3247.91	109.712
3248.45	101.949
3249	107.186
3249.55	107.312
3250.09	108.882
3250.64	102.897
3251.18	104.246
3251.73	106.261
3252.28	95.3866
3252.82	100.179
3253.37	99.0831
3253.91	100.654
3254.46	99.3353
3255	99.0169
3255.55	96.3651
3256.09	94.8245
3256.64	97.8395
3257.18	94.41
3257.73	95.536
3258.27	97.3287
3258.82	98.1214
3259.36	99.1364
3259.91	93.818
3260.45	91.944
3261	98.959
3261.54	92.1961
3262.09	93.1
3262.63	93.1149
3263.17	92.7965
3263.72	96.5892
3264.26	90.9375
3264.81	97.508
3265.35	89.5229
3265.9	92.4268
3266.44	91.3306
3266.98	94.2344
3267.53	87.916
3268.07	88.0421
3268.61	86.7237
3269.16	90.9609
3269.7	89.4202
3270.24	89.5463
3270.79	90.6723
3271.33	91.354
3271.87	89.1467
3272.42	87.6061
3272.96	87.1766
3273.5	89.8582
3274.04	90.0953
3274.59	89.6658
3275.13	91.6808
3275.67	91.029
3276.21	85.9329
3276.76	82.8367
3277.3	87.2961
3277.84	92.0888
3278.38	91.4371
3278.93	87.7853
3279.47	88.5781
3280.01	88.0375
3280.55	89.7191
3281.1	86.6229
3281.64	87.1934
3282.18	85.875
3282.72	84.3344
3283.26	89.2382
3283.8	87.5865
3284.35	85.7125
3284.89	91.5053
3285.43	87.4091
3285.97	84.3129
3286.51	84.6612
3287.05	88.4539
3287.59	92.2466
3288.13	86.9282
3288.68	82.9432
3289.22	84.847
3289.76	84.7508
3290.3	87.2102
3290.84	82.4474
3291.38	88.129
3291.92	84.9217
3292.46	84.27
3293	82.396
3293.54	84.1887
3294.08	85.3148
3294.62	91.1075
3295.16	83.0113
3295.7	87.0263
3296.24	87.0412
3296.78	89.1299
3297.32	88.5271
3297.86	84.9649
3298.4	84.7241
3298.94	84.8239
3299.48	85.5046
3300.02	86.1567
3300.56	82.0985
3301.1	91.235
3301.64	84.3636
3302.18	86.9565
3302.72	84.0855
3303.25	86.2245
3303.79	86.3189
3304.33	86.0548
3304.87	84.1667
3305.41	80.0454
3305.95	86.0766
3306.49	83.7802
3307.03	87.2807
3307.56	87.143
3308.1	86.6565
3308.64	85.5263
3309.18	83.8993
3309.72	83.521
3310.26	85.9098
3310.79	86.4431
3311.33	86.947
3311.87	85.9915
3312.41	84.9446
3312.95	84.5015
3313.48	84.3685
3314.02	83.9994
3314.56	85.9433
3315.1	85.9249
3315.63	85.1651
3316.17	86.531
3316.71	83.1644
3317.25	83.319
3317.78	84.4681
3318.32	82.3531
3318.86	83.6313
3319.39	84.2001
3319.93	85.7733
3320.47	83.6355
3321	82.2766
3321.54	85.506
3322.08	84.5444
3322.61	84.5624
3323.15	84.5588
3323.69	83.258
3324.22	81.5299
3324.76	87.7116
3325.3	85.3019
3325.83	84.7254
3326.37	80.7998
3326.9	82.2918
3327.44	83.2111
3327.98	85.7769
3328.51	85.3771
3329.05	83.7978
3329.58	83.2396
3330.12	86.3267
3330.65	83.4038
3331.19	84.3719
3331.73	86.6864
3332.26	82.8764
3332.8	80.8457
3333.33	83.5854
3333.86	84.8711
3334.4	82.968
3334.94	82.5112
3335.47	83.2975
3336.01	83.0288
3336.54	83.4748
3337.07	82.227
3337.61	82.2127
3338.14	81.5505
3338.68	81.8326
3339.21	82.84
3339.75	83.5129
3340.28	80.9144
3340.82	79.4689
3341.35	82.2856
3341.88	83.8457
3342.42	86.8923
3342.95	84.9513
3343.49	82.6289
3344.02	83.6316
3344.55	83.6949
3345.09	83.8142
3345.62	82.9216
3346.15	82.9932
3346.69	80.7988
3347.22	85.1554
3347.75	81.225
3348.29	81.1834
3348.82	85.7104
3349.35	82.6896
3349.89	86.6165
3350.42	84.6151
3350.95	83.6073
3351.48	81.1564
3352.02	83.0477
3352.12	83.5926
3352.67	83.3573
3353.22	79.8999
3353.77	79.8868
3354.32	86.5405
3354.87	83.9719
3355.41	82.9589
3355.96	81.8347
3356.51	80.8217
3357.06	85.3642
3357.6	81.0179
3358.15	86.2271
3358.7	82.6585
3359.25	83.201
3359.8	76.188
3360.34	80.3972
3360.89	79.3842
3361.44	84.5934
3361.99	86.3581
3362.53	80.9006
3363.08	85.5543
3363.63	79.8746
3364.17	82.8616
3364.72	81.0708
3365.27	83.28
3365.81	87.378
3366.36	86.2539
3366.91	85.4631
3367.45	82.339
3368	81.9926
3368.55	84.0907
3369.09	84.9666
3369.64	83.9535
3370.19	81.4961
3370.73	85.2608
3371.28	77.47
3371.82	83.5681
3372.37	84.4439
3372.92	78.542
3373.46	78.9734
3374.01	81.9604
3374.55	81.3918
3375.1	80.8233
3375.65	78.9213
3376.19	83.575
3376.74	81.4508
3377.28	83.7712
3377.83	83.647
3378.37	83.3007
3378.92	81.2876
3379.46	79.4968
3380.01	82.5949
3380.55	82.8041
3381.1	85.3466
3381.64	81.4447
3382.19	81.2095
3382.73	85.5298
3383.28	82.1834
3383.82	79.6148
3384.37	78.9351
3384.91	82.6999
3385.45	84.3535
3386	80.5627
3386.54	80.6608
3387.09	83.2033
3387.63	83.6348
3388.18	81.6217
3388.72	80.942
3389.26	81.1512
3389.81	83.0271
3390.35	87.1252
3390.89	81.001
3391.44	85.7658
3391.98	81.7528
3392.52	81.1842
3393.07	84.6156
3393.61	81.2693
3394.15	84.034
3394.7	82.1321
3395.24	81.4524
3395.78	81.4394
3396.33	81.3152
3396.87	81.1911
3397.41	79.6225
3397.96	84.3873
3398.5	81.4853
3399.04	85.6945
3399.58	83.4593
3400.13	80.5574
3400.67	80.211
3401.21	79.4202
3401.75	83.185
3402.3	83.0608
3402.84	78.3811
3403.38	85.257
3403.92	78.9106
3404.46	79.4532
3405.01	84.329
3405.55	84.6493
3406.09	81.4141
3406.63	82.7344
3407.17	73.6103
3407.72	80.8195
3408.26	83.0286
3408.8	84.2378
3409.34	84.7804
3409.88	86.7673
3410.42	80.6432
3410.96	82.1857
3411.5	83.6171
3412.04	76.6041
3412.59	81.0355
3413.13	82.9114
3413.67	82.2317
3414.21	80.9965
3414.75	81.2056
3415.29	82.7482
3415.83	80.5129
3416.37	84.0555
3416.91	86.598
3417.45	80.585
3417.99	85.2386
3418.53	84.8923
3419.07	80.7681
3419.61	80.4218
3420.15	80.7421
3420.69	78.3957
3421.23	76.6049
3421.77	80.2585
3422.31	84.0233
3422.85	83.6769
3423.39	82.3306
3423.93	82.0953
3424.47	76.5267
3425.01	80.1804
3425.55	83.9451
3426.09	84.0432
3426.63	81.808
3427.17	79.1283
3427.71	80.4486
3428.25	81.7689
3428.78	80.2003
3429.32	81.0762
3429.86	80.2854
3430.4	83.1612
3430.94	84.7038
3431.48	84.8018
3432.02	79.4555
3432.56	78.7758
3433.1	77.8739
3433.63	81.8608
3434.17	83.4034
3434.71	83.2792
3435.25	86.2662
3435.79	77.4754
3436.32	82.1291
3436.86	78.0049
3437.4	80.9919
3437.94	83.2011
3438.48	80.5214
3439.01	80.7306
3439.55	83.4953
3440.09	78.5934
3440.63	80.2471
3441.16	80.5674
3441.7	81.1099
3442.24	79.4302
3442.78	81.8616
3443.31	83.4042
3443.85	77.3911
3444.39	83.3781
3444.92	76.0317
3445.46	81.2409
3446	77.339
3446.54	77.6593
3447.07	82.4241
3447.61	75.6333
3448.14	79.1758
3448.68	79.7183
3449.22	81.0386
3449.75	83.2478
3450.29	84.3459
3450.83	80.3329
3451.36	78.3199
3451.9	80.3068
3452.44	75.6271
3452.97	79.6141
3453.51	80.49
3454.04	77.4769
3454.58	77.3528
3455.11	80.6731
3455.65	79.6601
3456.19	77.2026
3456.72	81.1896
3457.26	80.0655
3457.79	80.0524
3458.33	80.2616
3458.86	82.3597
3459.4	79.3467
3459.93	78.5559
3460.47	77.7651
3461	81.5298
3461.54	80.739
3462.07	78.3927
3462.61	81.3796
3463.14	78.9222
3463.68	78.1314
3464.21	77.4517
3464.75	76.5498
3465.28	74.6478
3465.82	80.3015
3466.35	80.3996
3466.88	82.3865
3467.42	77.3735
3467.95	76.6938
3468.49	77.903
3469.02	83.2233
3469.55	76.6547
3470.09	80.0862
3470.62	80.5176
3471.16	78.7268
3471.69	77.936
3472.22	79.034
3472.76	77.4655
3473.29	80.1191
3473.82	77.8839
3474.36	82.8708
3474.89	81.4134
3475.42	76.5114
3475.96	81.4984
3476.49	80.2632
3477.02	78.6946
3477.56	75.3482
3478.09	79.0019
3478.62	79.2111
3479.15	78.6425
3479.69	79.185
3480.22	79.5053
3480.75	78.159
3481.28	81.1459
3481.82	78.9107
3482.35	75.1199
3482.88	79.6624
3483.41	74.5383
3483.95	80.4141
3484.48	77.0678
3485.01	79.3881
3485.54	80.8195
3486.07	76.9176
3486.6	79.2379
3487.14	76.6693
3487.67	80.7674
3488.2	77.421
3488.73	79.1858
3489.26	82.0616
3489.79	74.493
3490.33	75.9245
3490.86	79.1337
3491.39	78.3429
3491.92	78.7743
3492.45	78.0946
3492.98	79.526
3493.51	79.9574
3494.04	77.6111
3494.57	79.2647
3495.11	78.3628
3495.64	77.3498
3496.17	79.4479
3496.7	81.1015
3497.23	79.7551
3497.76	78.9643
3498.29	78.3958
3498.82	76.9383
3499.35	78.0364
3499.88	78.4678
