#Acq. time (s)=	3
#Accumulations=	10
#Range (cm-¹)=	100...3500
#Windows=	6
#Autofocus=	Off
#AutoExposure=	Off
#Spike filter=	Multiple accum.
#Delay time (s)=	0
#Binning=	1
#Readout mode=	Signal
#DeNoise=	Off
#ICS correction=	Off
#Dark correction=	Off
#Inst. Process=	Off
#Instrument=	ARAMIS
#Detector=	Andor CCD
#Objective=	x50 SLWD
#Grating=	1800
#Filter=	100%
#Laser (nm)=	532
#Slit=	150
#Hole=	400
#Location=	Micro
#Range=	VIS
#StageXY=	Marzhauser
#StageZ=	Marzhauser
#X (µm)=	-7965.4
#Y (µm)=	-9947.55
#Z (µm)=	519.45
#Project=	
#Sample=	
#Site=	
#Title=	Oxidised MWCNTs 30_1
#Remark=	
#Date=	06.03.2020 12:24
#Acquired=	06.03.2020 12:24:08
100.291	292.778
101.183	304.33
102.074	301.438
102.968	315.88
103.86	318.766
104.751	327.096
105.643	328.76
106.536	318.535
107.427	307.198
108.318	311.973
109.209	311.97
110.102	326.078
110.993	324.742
111.884	328.628
112.775	338.958
113.665	345.51
114.556	340.396
115.446	349.616
116.337	335.501
117.227	337.276
118.119	327.607
119.009	321.826
119.899	331.934
120.789	327.598
121.679	334.817
122.567	315.703
123.456	316.7
124.346	303.141
125.235	313.694
126.125	312.357
127.014	317.799
127.903	320.796
128.793	323.904
129.682	327.456
130.569	321.676
131.457	337.45
132.346	343.336
133.235	333.444
134.122	322.219
135.01	298.661
135.899	294.102
136.787	291.877
137.673	283.652
138.561	290.204
139.45	271.646
140.336	265.309
141.224	272.862
142.109	274.748
142.997	271.411
143.885	277.742
144.77	272.961
145.658	266.847
146.543	270.733
147.431	260.174
148.316	276.06
149.203	267.168
150.088	277.498
150.975	267.162
151.86	274.826
152.745	278.045
153.632	266.598
154.516	265.706
155.401	259.48
156.287	271.144
157.172	266.586
158.056	252.471
158.942	268.691
159.826	261.354
160.71	270.24
161.594	264.793
162.48	266.345
163.364	267.676
164.247	256.228
165.131	266.336
166.015	264.222
166.898	263.33
167.783	264.105
168.667	264.435
169.55	261.321
170.433	255.652
171.316	257.204
172.199	265.09
173.082	251.865
173.964	256.862
174.847	252.97
175.73	257.856
176.612	259.186
177.495	252.516
178.377	253.513
179.257	258.399
180.139	257.174
181.021	248.727
181.903	254.724
182.785	251.721
183.667	252.162
184.549	260.604
185.428	251.934
186.31	246.375
187.191	245.706
188.073	245.369
188.952	253.811
189.833	248.586
190.714	246.36
191.593	245.913
192.474	253.576
193.355	247.351
194.234	249.015
195.115	249.345
195.993	241.231
196.874	245.673
197.752	245.781
198.633	245.444
199.511	245.441
200.391	249.327
201.269	242.435
202.149	244.655
203.027	247.874
203.907	242.871
204.785	244.757
205.665	239.42
206.542	242.751
207.42	247.748
208.299	243.522
209.176	242.742
210.054	245.961
210.933	245.847
211.81	241.288
212.687	243.174
213.564	242.504
214.441	239.39
215.319	241.61
216.196	250.495
217.073	238.048
217.949	242.6
218.826	236.375
219.702	243.261
220.58	240.814
221.456	239.255
222.332	247.03
223.208	242.027
224.084	234.468
224.96	235.91
225.836	232.573
226.711	245.126
227.587	242.456
228.462	242.564
229.338	243.561
230.213	239.558
231.086	236.889
231.962	245.441
232.837	234.216
233.712	239.213
234.586	242.432
235.461	243.763
236.334	240.871
237.209	246.201
238.083	244.531
238.958	247.084
239.83	242.192
240.704	235.411
241.579	242.186
242.453	246.739
243.325	245.624
244.199	245.177
245.071	244.841
245.944	234.615
246.818	247.946
247.69	239.832
248.563	247.718
249.435	232.603
250.308	244.489
251.179	241.486
252.053	239.706
252.924	242.925
253.797	234.588
254.668	240.252
255.541	241.582
256.411	247.913
257.282	244.132
258.155	245.018
259.025	250.682
259.896	245.234
260.768	238.12
261.638	237.895
262.509	248.558
263.381	251.778
264.251	244.664
265.121	239.105
265.991	248.102
266.862	242.766
267.732	243.096
268.602	242.093
269.471	245.757
270.341	242.42
271.21	239.417
272.079	242.414
272.949	247.411
273.818	251.853
274.689	248.627
275.558	249.847
276.427	241.955
277.295	244.396
278.162	250.727
279.031	247.946
279.899	248.054
280.768	252.162
281.636	244.159
282.504	240.045
283.373	245.486
284.241	245.817
285.109	249.369
285.975	253.033
286.843	241.808
287.71	248.582
288.578	247.691
289.446	244.576
290.311	243.573
291.179	238.348
292.046	241.79
292.911	242.009
293.779	245.228
294.646	240.669
295.511	243.444
296.378	249.997
297.243	245.66
298.11	249.324
298.976	234.21
299.841	240.985
300.707	238.871
301.572	238.09
302.438	238.42
303.303	231.973
304.169	244.081
305.033	243.967
305.897	237.408
306.763	243.072
307.627	239.18
308.493	240.066
309.356	240.507
310.22	238.727
311.086	240.946
311.949	244.609
312.813	235.162
313.676	235.826
314.541	236.045
315.404	240.264
316.267	239.706
317.13	237.703
317.993	239.588
318.858	235.252
319.721	237.693
320.583	238.802
321.446	242.132
322.309	240.351
323.171	236.015
324.033	229.012
324.896	233.787
325.758	236.117
326.62	236.003
327.482	225.111
328.344	234.219
329.206	231.883
330.067	233.657
330.929	229.099
331.791	237.207
332.652	235.648
333.514	229.868
334.373	226.865
335.234	227.084
336.095	234.414
336.957	227.078
337.818	229.297
338.676	227.516
339.537	233.291
340.398	234.955
341.257	230.618
342.117	222.171
342.978	225.946
343.836	229.498
344.697	235.717
345.557	235.048
346.415	233.6
347.275	232.82
348.133	224.372
348.993	229.036
349.853	235.922
350.711	230.585
351.571	225.916
352.428	226.246
353.286	227.465
354.146	227.684
355.003	229.681
355.862	238.678
356.719	235.009
357.577	231.117
358.436	234.447
359.293	224.555
360.15	230.219
361.008	225.549
361.865	228.991
362.722	220.099
363.578	230.651
364.437	224.537
365.293	227.312
366.15	225.865
367.006	224.639
367.862	222.081
368.72	230.411
369.576	226.742
370.432	225.961
371.288	226.847
372.144	230.621
373	231.396
373.855	230.504
374.711	229.723
375.566	222.498
376.422	233.94
377.277	232.048
378.132	217.934
378.987	225.042
379.842	216.594
380.697	230.258
381.55	226.922
382.405	228.919
383.26	234.249
384.114	231.69
384.969	225.021
385.823	217.24
386.676	228.348
387.53	223.234
388.384	228.453
389.236	224.117
390.091	229.336
390.945	225.555
391.798	233.552
392.65	229.105
393.504	228.213
394.356	232.543
395.209	226.651
396.063	232.648
396.914	225.423
397.768	223.309
398.619	223.528
399.472	226.97
400.323	231.522
401.176	233.519
402.027	229.627
402.878	226.624
403.731	224.066
404.582	232.618
405.434	221.949
406.285	228.057
407.135	228.943
407.988	229.606
408.838	229.048
409.688	226.934
410.538	228.708
411.391	229.261
412.241	230.48
413.091	235.922
413.94	225.474
414.79	226.582
415.642	222.135
416.491	226.799
417.341	238.684
418.19	227.792
419.04	228.234
419.889	229.009
420.738	232.783
421.587	222.114
422.436	235.555
423.285	228.108
424.134	236.883
424.983	232.435
425.832	226.21
426.68	224.985
427.529	232.759
428.378	223.979
429.226	241.642
430.074	227.195
430.92	224.303
431.769	229.522
432.617	244.964
433.465	231.738
434.311	230.513
435.159	234.399
436.006	223.174
436.854	228.949
437.7	229.168
438.547	237.609
439.395	234.717
440.24	226.492
441.087	239.6
441.935	235.264
442.78	233.483
443.627	231.147
444.472	230.144
445.319	229.585
446.163	237.138
447.01	225.801
447.855	234.021
448.702	226.351
449.546	234.904
450.392	236.456
451.237	231.564
452.081	227.45
452.927	228.447
453.771	228.555
454.615	240.108
455.461	231.66
456.305	236.657
457.149	239.432
457.993	231.54
458.838	224.982
459.682	229.423
460.525	231.531
461.369	234.195
462.212	231.303
463.057	228.744
463.901	228.853
464.744	233.961
465.587	232.18
466.43	221.177
467.273	225.618
468.115	223.504
468.958	231.612
469.801	225.387
470.643	225.717
471.486	230.603
472.328	229.045
473.17	230.375
474.013	222.928
474.855	228.258
475.697	214.588
476.537	222.919
477.379	223.249
478.221	221.468
479.062	223.021
479.904	224.24
480.744	225.681
481.585	221.345
482.427	224.786
483.268	228.672
484.107	230.669
484.948	219.333
485.79	227.997
486.629	223.327
487.47	219.768
488.309	223.765
489.149	213.874
489.99	223.759
490.829	217.534
491.669	225.531
492.508	216.528
493.348	220.859
494.187	214.3
495.027	217.63
495.865	213.961
496.703	217.402
497.543	219.51
498.381	216.285
499.221	222.504
500.059	223.057
500.897	221.054
501.736	219.495
502.574	219.937
503.412	212.934
504.249	215.597
505.088	219.15
505.926	226.369
506.763	218.255
507.6	214.585
508.437	220.249
509.274	215.024
510.113	219.576
510.95	217.129
511.786	222.792
512.623	222.345
513.46	221.231
514.296	211.117
515.133	214.558
515.969	216.444
516.805	216.997
517.641	212.994
518.477	222.213
519.313	223.543
520.149	215.985
520.983	220.982
521.819	225.867
522.655	233.531
523.49	216.417
524.326	226.97
525.161	226.3
525.995	223.519
526.83	222.849
527.666	226.624
528.501	226.843
529.334	231.396
530.169	233.393
531.004	237.501
531.837	230.831
532.672	239.273
533.504	240.825
534.339	233.156
535.173	233.486
536.006	233.705
536.84	242.258
537.673	241.033
538.507	241.474
539.339	243.027
540.173	251.357
541.005	242.576
541.839	243.684
542.671	247.015
543.503	247.789
544.337	249.675
545.168	240.117
546	256.558
546.833	247.888
547.665	251.663
548.496	250.882
549.327	250.213
550.161	255.876
550.992	254.873
551.823	255.093
552.654	250.867
553.485	246.42
554.317	248.306
555.148	248.303
555.979	252.855
556.809	255.63
557.64	255.294
558.47	250.624
559.301	258.066
560.131	250.063
560.961	240.726
561.791	250.723
562.621	245.72
563.451	251.717
564.281	248.714
565.111	250.156
565.941	252.708
566.768	248.039
567.598	254.702
568.428	243.033
569.257	248.696
570.086	252.36
570.914	247.579
571.743	243.576
572.572	250.018
573.401	245.126
574.228	246.012
575.057	244.231
575.886	241.894
576.713	240.003
577.541	238.888
578.37	239.663
579.196	243.438
580.025	238.768
580.851	242.654
581.68	236.54
582.506	238.426
583.334	226.423
584.16	240.864
584.988	239.084
585.814	233.858
586.642	240.3
587.468	238.852
588.293	236.849
589.121	239.402
589.946	235.621
590.772	230.396
591.599	237.726
592.425	236.501
593.25	232.609
594.075	226.162
594.902	232.048
595.727	227.711
596.552	222.375
597.377	229.927
598.202	226.813
599.026	229.255
599.853	227.918
600.678	227.027
601.502	222.357
602.327	224.576
603.151	229.795
603.975	231.126
604.799	226.123
605.624	229.009
606.448	225.006
607.272	224.78
608.096	222.888
608.919	223.33
609.741	222.105
610.565	223.324
611.388	213.432
612.212	217.207
613.035	211.981
613.859	215.201
614.68	220.198
615.503	220.75
616.326	214.303
617.149	210.411
617.97	213.519
618.793	216.627
619.616	209.624
620.437	211.621
621.26	208.618
622.08	206.171
622.903	206.945
623.725	213.609
624.546	203.939
625.368	208.159
626.188	209.156
627.01	210.708
627.831	203.15
628.653	207.036
629.473	197.921
630.292	208.807
631.114	203.804
631.934	206.579
632.756	204.021
633.575	210.351
634.395	204.237
635.216	201.012
636.035	203.675
636.855	194.783
637.674	193.669
638.495	197.777
639.314	209.108
640.133	199.771
640.952	198.768
641.771	196.765
642.59	198.651
643.408	195.426
644.229	192.312
645.047	195.864
645.866	195.084
646.684	198.303
647.503	194.189
648.321	191.519
649.139	189.072
649.957	195.402
650.775	195.066
651.591	186.951
652.409	187.948
653.227	189.834
654.045	189.054
654.862	183.606
655.68	187.603
656.497	190.822
657.313	186.597
658.13	189.261
658.947	187.813
659.765	178.81
660.58	189.03
661.397	183.249
662.214	181.912
663.029	185.465
663.846	185.351
664.662	178.903
665.477	179.9
666.294	183.231
667.108	185.117
667.925	173.891
668.739	178.666
669.555	176.219
670.37	175.66
671.186	174.99
672	174.765
672.816	181.651
673.63	179.648
674.444	177.867
675.26	173.309
676.073	174.306
676.887	169.969
677.703	176.633
678.516	178.186
679.33	174.96
680.145	172.069
680.958	173.066
681.772	167.396
682.585	168.726
683.398	177.168
684.213	170.609
685.026	174.051
685.839	167.381
686.651	162.489
687.464	168.375
688.277	167.261
689.089	165.258
689.902	165.588
690.714	173.807
691.527	165.582
692.339	162.69
693.151	160.687
693.963	162.684
694.775	167.681
695.587	158.9
696.399	162.786
697.209	161.894
698.021	159.891
698.833	160.444
699.644	156.774
700.456	158.771
701.265	158.99
702.077	156.21
702.888	160.762
703.697	156.759
704.508	154.423
705.319	155.753
706.129	158.306
706.939	159.192
707.75	154.189
708.559	158.186
709.37	155.294
710.179	156.957
710.989	153.621
711.798	152.729
712.608	155.726
713.417	149.612
714.227	148.053
715.035	151.495
715.843	155.825
716.654	149.711
717.462	157.264
718.269	149.705
719.079	151.813
719.887	152.81
720.695	147.029
721.505	148.471
722.312	149.468
723.12	153.243
723.927	150.795
724.737	151.014
725.544	148.678
726.351	141.008
727.158	148.005
727.965	147.669
728.772	147.999
729.579	145.108
730.386	147.549
731.193	151.768
732	147.876
732.806	150.096
733.613	153.426
734.419	143.867
735.226	152.642
736.032	150.083
736.839	149.414
737.645	146.411
738.451	146.074
739.257	153.516
740.061	140.624
740.867	149.177
741.673	151.84
742.479	141.059
743.282	150.612
744.088	148.053
744.894	145.495
745.699	148.381
746.503	146.822
747.308	146.708
748.111	148.372
748.917	150.035
749.722	145.588
750.525	143.918
751.33	152.471
752.133	150.69
752.938	149.909
753.74	147.017
754.545	142.57
755.348	148.456
756.152	156.008
756.955	146.116
757.757	144.336
758.562	151.222
759.364	150.219
760.166	149.993
760.97	153.657
761.773	152.987
762.575	149.318
763.378	144.759
764.18	147.978
764.982	149.864
765.784	147.083
766.586	148.192
767.387	144.855
768.191	149.297
768.992	147.96
769.793	152.402
770.595	152.177
771.396	146.729
772.197	144.948
772.998	151.279
773.799	148.387
774.6	145.606
775.401	150.159
776.202	149.822
777.003	148.486
777.803	150.816
778.602	145.369
779.402	150.366
780.203	151.474
781.003	146.582
781.804	151.912
782.604	145.465
783.402	150.906
784.202	149.348
785.002	144.122
785.8	147.897
786.6	151.783
787.4	145.447
788.198	150.11
788.997	152.107
789.797	147.438
790.594	146.546
791.394	147.654
792.191	147.984
792.991	152.426
793.788	145.867
794.587	144.531
795.384	147.972
796.183	148.192
796.98	142.855
797.779	144.963
798.576	153.516
799.373	141.18
800.171	143.843
800.968	141.507
801.765	143.615
802.563	145.612
803.359	143.942
804.156	147.495
804.952	148.492
805.75	144.822
806.546	146.375
807.342	138.372
808.138	141.813
808.934	145.921
809.73	140.14
810.526	150.249
811.322	139.023
812.117	140.798
812.913	137.351
813.708	136.57
814.504	136.678
815.299	138.786
816.095	141.339
816.89	139.002
817.685	141.666
818.48	143.552
819.275	144.549
820.07	141.101
820.865	138.098
821.658	137.207
822.452	135.426
823.247	136.201
824.042	134.197
824.834	139.75
825.629	133.747
826.423	135.633
827.217	133.852
828.01	138.516
828.804	137.846
829.596	135.399
830.39	135.396
831.184	134.17
831.976	131.945
832.77	134.276
833.561	132.939
834.355	130.492
835.147	130.822
835.94	127.041
836.732	135.261
837.523	135.146
838.317	131.588
839.108	128.585
839.899	131.804
840.692	133.579
841.483	133.465
842.274	134.128
843.067	136.014
843.858	131.678
844.649	131.453
845.44	130.116
846.232	132.225
847.023	125.777
847.813	129.107
848.604	135.438
849.394	133.546
850.184	135.098
850.975	127.762
851.765	135.203
852.555	134.534
853.345	132.197
854.135	136.861
854.925	131.747
855.715	132.633
856.504	127.741
857.294	132.405
858.084	132.846
858.873	132.621
859.663	138.173
860.45	134.504
861.24	136.167
862.029	132.387
862.818	129.606
863.607	128.714
864.394	127.044
865.183	129.708
865.972	126.149
866.759	132.751
867.548	132.735
868.337	130.393
869.123	132.862
869.912	124.233
870.698	122.649
871.487	126.766
872.273	128.576
873.062	125.55
873.848	128.715
874.636	126.322
875.422	128.996
876.21	127.337
876.996	125.1
877.784	125.739
878.57	129.124
879.356	129.565
880.143	129.916
880.929	129.411
881.715	125.633
882.5	124.966
883.287	127.589
884.073	125.318
884.858	128.208
885.643	126.345
886.429	127.801
887.216	127.71
888.001	126.282
888.786	124.881
889.57	122.728
890.355	130.963
891.14	126.385
891.925	127.455
892.709	129.238
893.494	128.878
894.278	125.725
895.063	125.666
895.847	126.154
896.631	129.624
897.416	126.451
898.198	126.543
898.982	129.057
899.766	124.48
900.55	130.577
901.334	129.917
902.115	129.217
902.899	130.215
903.683	128.25
904.466	131.319
905.248	129.311
906.031	132.631
906.815	130.727
907.596	129.959
908.379	134.114
909.161	132.059
909.944	130.28
910.725	132.436
911.508	132.783
912.289	134.121
913.072	136.476
913.852	133.357
914.635	132.795
915.416	133.685
916.198	136.04
916.979	137.774
917.759	136.224
918.542	134.862
919.322	134.879
920.102	137.513
920.884	135.953
921.665	139.777
922.445	141.362
923.225	139.05
924.005	139.207
924.786	140.267
925.566	139.706
926.346	141.798
927.126	141.657
927.905	142.017
928.685	140.93
929.464	145.077
930.243	148.903
931.023	148.274
931.802	147.684
932.581	148.787
933.36	145.198
934.139	150.447
934.918	146.263
935.697	150.008
936.476	148.317
937.253	150.549
938.032	154.223
938.81	150.286
939.589	149.19
940.367	155.45
941.144	156.206
941.922	157.149
942.7	154.634
943.477	153.073
944.255	156.504
945.033	155.114
945.809	152.929
946.587	153.28
947.365	154.716
948.141	158.468
948.919	158.059
949.23	156.529
950.025	155.763
950.822	152.885
951.617	154.786
952.412	160.464
953.207	161.031
954.001	154.82
954.796	156.387
955.589	159.399
956.383	155.966
957.178	159.089
957.972	157.433
958.767	156.223
959.561	159.234
960.355	160.246
961.15	153.257
961.942	157.491
962.736	157.391
963.53	158.514
964.324	162.525
965.115	163.093
965.909	158.771
966.703	154.338
967.496	162.794
968.288	168.472
969.081	161.595
969.875	164.717
970.666	170.173
971.459	168.073
972.251	165.307
973.044	165.985
973.835	163.552
974.628	168.453
975.419	173.464
976.212	168.587
977.002	175.154
977.795	173.054
978.586	175.177
979.378	182.411
980.169	178.2
980.961	176.656
981.752	177.223
982.542	172.79
983.334	186.135
984.124	187.369
984.914	182.713
985.705	183.725
986.496	181.07
987.286	183.637
988.076	180.093
988.866	178.327
989.658	181.56
990.447	183.905
991.237	185.472
992.026	182.373
992.816	188.495
993.605	179.396
994.394	185.518
995.183	179.196
995.973	178.541
996.764	183.219
997.553	182.009
998.341	179.242
999.13	183.698
999.917	184.376
1000.71	181.721
1001.49	184.066
1002.28	187.3
1003.07	185.089
1003.86	186.878
1004.65	180.779
1005.44	185.679
1006.22	189.357
1007.01	186.147
1007.8	188.38
1008.59	191.614
1009.38	185.403
1010.16	183.971
1010.95	189.315
1011.74	190.994
1012.52	193.561
1013.31	190.017
1014.1	189.917
1014.88	185.817
1015.67	190.495
1016.46	200.729
1017.24	199.852
1018.03	191.974
1018.82	197.319
1019.6	197.442
1020.39	201.453
1021.17	204.02
1021.96	195.81
1022.75	199.155
1023.53	197.944
1024.32	205.844
1025.1	209.078
1025.89	209.423
1026.67	210.99
1027.46	211.224
1028.24	211.902
1029.03	213.691
1029.81	211.591
1030.6	211.492
1031.38	214.837
1032.17	213.404
1032.95	216.749
1033.73	217.316
1034.52	220.883
1035.3	223.339
1036.09	221.683
1036.87	226.028
1037.65	229.595
1038.44	221.718
1039.22	234.618
1040	227.185
1040.79	223.975
1041.57	230.208
1042.35	234.109
1043.14	242.12
1043.92	243.243
1044.7	236.032
1045.49	238.599
1046.27	243.389
1047.05	238.733
1047.83	238.634
1048.61	250.534
1049.4	239.546
1050.18	249.446
1050.96	247.791
1051.74	254.358
1052.52	248.37
1053.31	252.492
1054.09	261.281
1054.87	264.071
1055.65	255.638
1056.43	260.983
1057.21	263.772
1057.99	265.672
1058.78	268.684
1059.56	270.029
1060.34	265.818
1061.12	269.052
1061.9	263.063
1062.68	279.964
1063.46	273.086
1064.24	274.431
1065.02	281.665
1065.8	281.898
1066.58	283.799
1067.36	291.366
1068.14	285.155
1068.92	286.278
1069.7	286.4
1070.48	299.523
1071.26	299.534
1072.04	299.102
1072.81	295.335
1073.59	299.68
1074.37	304.581
1075.15	302.37
1075.93	299.27
1076.71	309.282
1077.49	307.404
1078.27	309.194
1079.04	309.872
1079.82	310.106
1080.6	314.339
1081.38	325.795
1082.15	313.14
1082.93	319.929
1083.71	319.607
1084.49	316.063
1085.26	322.853
1086.04	322.198
1086.82	321.654
1087.6	318.554
1088.37	321.677
1089.15	322.799
1089.93	322.033
1090.7	325.933
1091.48	329.167
1092.26	333.956
1093.03	318.968
1093.81	314.535
1094.59	336.324
1095.36	336.336
1096.14	334.458
1096.91	320.692
1097.69	325.37
1098.47	320.493
1099.24	322.171
1100.02	331.294
1100.79	321.416
1101.57	326.983
1102.34	319.439
1103.12	324.784
1103.89	318.129
1104.67	321.918
1105.44	314.93
1106.22	310.274
1106.99	311.286
1107.77	302.964
1108.54	310.198
1109.32	315.209
1110.09	313.554
1110.86	307.566
1111.64	315.133
1112.41	306.589
1113.18	298.822
1113.96	304.723
1114.73	297.623
1115.51	293.746
1116.28	303.313
1117.05	290.991
1117.82	294.114
1118.6	298.125
1119.37	291.137
1120.14	285.926
1120.92	282.049
1121.69	285.282
1122.46	280.849
1123.23	270.972
1124.01	284.984
1124.78	280.995
1125.55	275.451
1126.32	278.018
1127.09	264.918
1127.87	273.374
1128.64	267.053
1129.41	266.064
1130.18	258.409
1130.95	262.42
1131.72	261.654
1132.49	264.332
1133.26	249.233
1134.04	256.689
1134.81	264.478
1135.58	249.601
1136.35	255.834
1137.12	250.957
1137.89	252.635
1138.66	251.424
1139.43	249.88
1140.2	250.114
1140.97	245.459
1141.74	244.026
1142.51	250.704
1143.28	242.716
1144.05	232.283
1144.82	237.183
1145.59	230.417
1146.36	231.984
1147.13	232.551
1147.9	242.007
1148.66	235.796
1149.43	234.585
1150.2	238.152
1150.97	221.275
1151.74	233.509
1152.51	233.187
1153.28	228.198
1154.04	229.877
1154.81	223.888
1155.58	219.789
1156.35	225.911
1157.12	218.367
1157.89	222.934
1158.65	219.835
1159.42	220.068
1160.19	216.191
1160.96	215.869
1161.72	216.881
1162.49	221.892
1163.26	214.459
1164.02	218.582
1164.79	218.482
1165.56	221.494
1166.32	208.727
1167.09	216.628
1167.86	215.639
1168.62	213.762
1169.39	205.773
1170.16	207.563
1170.92	204.241
1171.69	212.919
1172.45	211.153
1173.22	214.72
1173.98	199.509
1174.75	211.854
1175.52	211.977
1176.28	206.099
1177.05	204.777
1177.81	205.9
1178.58	204.8
1179.34	204.034
1180.11	212.379
1180.87	198.39
1181.64	205.624
1182.4	201.302
1183.17	202.758
1183.93	189.881
1184.69	190.67
1185.46	195.459
1186.22	195.582
1186.99	197.816
1187.75	194.494
1188.51	197.95
1189.28	194.628
1190.04	198.64
1190.8	196.873
1191.57	199.44
1192.33	196.785
1193.09	196.686
1193.86	195.808
1194.62	190.264
1195.38	193.72
1196.14	189.843
1196.91	197.188
1197.67	200.199
1198.43	188.099
1199.19	191.333
1199.96	193.345
1200.72	189.69
1201.48	195.923
1202.24	182.713
1203	189.057
1203.77	189.624
1204.53	191.414
1205.29	191.759
1206.05	190.437
1206.81	187.337
1207.57	193.571
1208.33	191.249
1209.1	192.483
1209.86	182.05
1210.62	192.506
1211.38	185.184
1212.14	191.084
1212.9	188.318
1213.66	189.996
1214.42	192.674
1215.18	192.908
1215.94	191.475
1216.7	194.82
1217.46	188.387
1218.22	194.065
1218.98	186.632
1219.74	192.644
1220.5	190.655
1221.26	182.556
1222.02	185.345
1222.78	186.801
1223.53	189.257
1224.29	190.713
1225.05	188.947
1225.81	191.514
1226.57	187.858
1227.33	189.425
1228.09	185.77
1228.84	191.893
1229.6	193.793
1230.36	193.027
1231.12	189.372
1231.88	201.161
1232.63	195.617
1233.39	199.406
1234.15	192.529
1234.91	193.318
1235.67	197.552
1236.42	194.786
1237.18	193.686
1237.94	198.92
1238.69	196.598
1239.45	199.61
1240.21	198.51
1240.96	199.633
1241.72	200.644
1242.48	205.322
1243.23	201.223
1243.99	200.79
1244.75	200.579
1245.5	197.591
1246.26	201.158
1247.01	204.169
1247.77	205.625
1248.53	204.637
1249.28	200.315
1250.04	202.882
1250.79	205.56
1251.55	205.46
1252.3	210.027
1253.06	210.817
1253.81	210.495
1254.57	208.84
1255.32	208.073
1256.08	209.752
1256.83	208.096
1257.59	213.775
1258.34	209.453
1259.1	217.798
1259.85	214.809
1260.6	214.043
1261.36	221.388
1262.11	226.066
1262.87	216.633
1263.62	211.089
1264.37	223.656
1265.13	222.667
1265.88	223.457
1266.63	225.468
1267.39	218.257
1268.14	211.38
1268.89	230.28
1269.65	225.959
1270.4	229.748
1271.15	228.982
1271.9	229.882
1272.66	226.116
1273.41	240.127
1274.16	228.694
1274.91	238.15
1275.67	235.273
1276.42	240.062
1277.17	232.851
1277.92	244.974
1278.67	238.763
1279.42	246.442
1280.18	247.786
1280.93	251.465
1281.68	240.809
1282.43	252.599
1283.18	254.61
1283.93	255.733
1284.68	255.078
1285.43	264.422
1286.18	258.101
1286.93	256.89
1287.69	264.235
1288.44	270.246
1289.19	272.924
1289.94	268.38
1290.69	273.17
1291.44	275.181
1292.19	282.526
1292.94	283.76
1293.69	274.993
1294.44	287.449
1295.19	296.017
1295.93	291.361
1296.68	290.706
1297.43	306.051
1298.18	312.396
1298.93	302.852
1299.68	309.53
1300.43	327.319
1301.18	326.775
1301.93	322.564
1302.67	338.354
1303.42	336.699
1304.17	343.71
1304.92	343.166
1305.67	352.733
1306.41	362.3
1307.16	368.645
1307.91	370.323
1308.66	375.001
1309.41	381.124
1310.15	385.024
1310.9	399.258
1311.65	404.825
1312.39	419.392
1313.14	429.181
1313.89	441.749
1314.64	438.427
1315.38	453.994
1316.13	461.005
1316.88	469.239
1317.62	487.139
1318.37	490.262
1319.12	505.273
1319.86	514.174
1320.61	532.297
1321.35	548.419
1322.1	557.32
1322.85	580.109
1323.59	602.898
1324.34	621.132
1325.08	626.254
1325.83	636.155
1326.57	657.5
1327.32	675.622
1328.06	698.967
1328.81	729.312
1329.55	747.101
1330.3	760.446
1331.04	786.458
1331.79	802.691
1332.53	823.258
1333.28	838.381
1334.02	863.393
1334.76	889.626
1335.51	893.416
1336.25	909.983
1337	938.994
1337.74	959.339
1338.48	966.906
1339.23	966.917
1339.97	982.485
1340.71	1001.83
1341.46	1007.17
1342.2	1001.41
1342.94	1004.2
1343.69	1010.54
1344.43	992.554
1345.17	1004.23
1345.92	1002.69
1346.66	971.81
1347.4	981.488
1348.14	950.944
1348.89	924.4
1349.63	907.967
1350.37	913.312
1351.11	888.768
1351.85	864.669
1352.6	841.013
1353.34	827.136
1354.08	792.036
1354.82	789.937
1355.56	768.393
1356.3	764.182
1357.04	725.527
1357.79	701.761
1358.53	680.55
1359.27	666.339
1360.01	651.573
1360.75	635.14
1361.49	609.818
1362.23	594.274
1362.97	581.619
1363.71	567.519
1364.45	550.864
1365.19	546.653
1365.93	516.665
1366.67	505.121
1367.41	501.688
1368.15	484.144
1368.89	452.6
1369.63	464.278
1370.37	458.401
1371.11	442.634
1371.85	420.757
1372.59	415.324
1373.33	409.558
1374.07	398.347
1374.8	394.025
1375.54	388.37
1376.28	380.826
1377.02	367.282
1377.76	368.96
1378.5	360.749
1379.23	351.428
1379.97	344.217
1380.71	340.562
1381.45	340.351
1382.19	331.696
1382.92	315.041
1383.66	323.83
1384.4	320.397
1385.14	323.742
1385.87	315.309
1386.61	311.209
1387.35	305.888
1388.09	300.455
1388.82	300.799
1389.56	289.144
1390.3	292.267
1391.03	286.278
1391.77	284.845
1392.51	274.301
1393.24	284.313
1393.98	275.991
1394.72	275.336
1395.45	279.903
1396.19	274.248
1396.92	266.481
1397.66	264.16
1398.4	266.838
1399.13	261.96
1399.87	257.083
1400.6	255.65
1401.34	254.551
1402.07	250.118
1402.81	254.018
1403.54	247.807
1404.28	255.819
1405.01	248.275
1405.75	247.731
1406.48	247.631
1407.21	236.198
1407.95	248.765
1408.68	248.999
1409.42	245.233
1410.15	244.689
1410.89	242.367
1411.62	243.934
1412.35	236.39
1413.09	241.957
1413.82	237.413
1414.55	233.091
1415.29	232.991
1416.02	236.781
1416.75	230.237
1417.49	242.137
1418.22	233.926
1418.95	234.827
1419.69	234.06
1420.42	226.85
1421.15	232.417
1421.88	231.206
1422.62	233.884
1423.35	225.118
1424.08	216.352
1424.81	226.03
1425.55	224.93
1426.28	226.608
1427.01	232.731
1427.74	222.965
1428.47	226.754
1429.2	221.321
1429.94	223.221
1430.67	214.677
1431.4	223.8
1432.13	224.923
1432.86	218.823
1433.59	217.723
1434.32	220.957
1435.05	219.746
1435.78	217.758
1436.51	215.103
1437.24	224.781
1437.97	215.57
1438.7	222.582
1439.43	220.038
1440.16	223.938
1440.89	219.95
1441.62	223.183
1442.35	221.75
1443.08	218.095
1443.81	210.218
1444.54	221.118
1445.27	214.907
1446	219.919
1446.73	220.708
1447.46	220.498
1448.19	220.065
1448.92	219.076
1449.65	213.643
1450.37	224.988
1451.1	218.999
1451.83	217.344
1452.56	215.023
1453.29	223.923
1454.02	212.49
1454.74	221.835
1455.47	221.069
1456.2	219.191
1456.93	220.203
1457.66	222.325
1458.38	222.003
1459.11	224.237
1459.84	213.471
1460.57	218.038
1461.29	219.161
1462.02	225.839
1462.75	224.184
1463.47	228.528
1464.2	220.318
1464.93	218.663
1465.65	222.674
1466.38	219.686
1467.11	224.586
1467.83	225.931
1468.56	222.942
1469.29	220.065
1470.01	213.521
1470.74	220.088
1471.46	219.988
1472.19	224.889
1472.92	226.011
1473.64	223.356
1474.37	218.145
1475.09	221.379
1475.82	222.724
1476.54	219.735
1477.27	223.969
1477.99	227.536
1478.72	224.103
1479.44	223.782
1480.17	224.46
1480.89	223.582
1481.62	226.594
1482.34	227.383
1483.06	218.728
1483.79	234.739
1484.51	229.862
1485.24	222.651
1485.96	224.33
1486.69	235.452
1487.41	226.241
1488.13	219.475
1488.86	231.376
1489.58	229.054
1490.3	226.176
1491.03	239.188
1491.75	234.088
1492.47	238.1
1493.19	232
1493.92	242.456
1494.64	229.579
1495.36	237.812
1496.08	243.379
1496.81	234.613
1497.53	234.847
1498.25	235.192
1498.97	232.648
1499.7	240.77
1500.42	238.226
1501.14	242.349
1501.86	244.694
1502.58	245.483
1503.3	241.383
1504.03	240.95
1504.75	246.406
1505.47	240.307
1506.19	252.54
1506.91	254.108
1507.63	246.786
1508.35	254.131
1509.07	255.475
1509.8	257.931
1510.52	250.832
1511.24	254.51
1511.96	255.521
1512.68	262.866
1513.4	248.878
1514.12	258.334
1514.84	264.456
1515.56	257.135
1516.28	264.146
1517	257.269
1517.72	265.058
1518.43	273.958
1519.15	267.637
1519.87	268.537
1520.59	272.437
1521.31	275.449
1522.03	274.905
1522.75	280.138
1523.47	285.928
1524.19	288.828
1524.91	284.284
1525.62	286.851
1526.34	288.418
1527.06	291.874
1527.78	301.552
1528.5	310.453
1529.22	312.798
1529.93	305.142
1530.65	322.043
1531.37	321.61
1532.09	330.066
1532.81	331.3
1533.52	331.755
1534.24	335.656
1534.96	339.667
1535.67	336.234
1536.39	355.69
1537.11	352.702
1537.82	363.825
1538.54	369.392
1539.26	377.07
1539.98	386.859
1540.69	387.204
1541.41	397.215
1542.12	419.671
1542.84	414.683
1543.56	421.472
1544.27	442.484
1544.99	458.828
1545.7	462.951
1546.42	479.074
1547.14	489.196
1547.85	511.874
1548.57	522.33
1549.28	542.009
1550	564.687
1550.71	595.809
1551.43	601.154
1552.14	627.499
1552.86	653.288
1553.57	682.189
1554.29	710.534
1555	728.767
1555.72	751.668
1556.43	791.124
1557.14	818.246
1557.86	861.147
1558.57	905.825
1559.29	931.836
1560	979.514
1560.71	1028.08
1561.43	1066.32
1562.14	1105.66
1562.85	1152.23
1563.57	1213.63
1564.28	1250.3
1565	1308.88
1565.71	1349.23
1566.42	1397
1567.13	1423.9
1567.85	1472.06
1568.56	1508.31
1569.27	1559.3
1569.99	1591.29
1570.7	1590.7
1571.41	1600.49
1572.12	1626.77
1572.83	1608
1573.55	1614.44
1574.26	1612.17
1574.97	1603.58
1575.68	1573.15
1576.39	1562.22
1577.1	1500.02
1577.82	1481.27
1578.53	1427.35
1579.24	1420.43
1579.95	1349.49
1580.66	1306.85
1581.37	1268.07
1582.08	1237.23
1582.79	1195.31
1583.51	1144.13
1584.22	1106.43
1584.93	1062.53
1585.64	1009.25
1586.35	989.66
1587.06	952.607
1587.77	915.81
1588.48	870.49
1589.19	847.507
1589.9	810.83
1590.61	791.629
1591.32	768.278
1592.03	741.066
1592.73	714.308
1593.44	696.036
1594.15	666.702
1594.86	661.439
1595.57	641.466
1596.28	629.51
1596.99	613.469
1597.7	607.234
1598.41	588.975
1599.12	574.04
1599.82	568.965
1600.53	560.279
1601.24	565.146
1601.95	556.481
1602.66	552.645
1603.37	554.427
1604.07	555.717
1604.78	547.602
1605.49	558.526
1606.2	557.453
1606.9	556.126
1607.61	553.95
1608.32	555.521
1609.03	556.488
1609.73	558.933
1610.44	552.88
1611.15	559.136
1611.86	559.138
1612.56	548.779
1613.27	550.87
1613.98	545.487
1614.68	530.463
1615.39	520.751
1616.09	515.096
1616.8	503.572
1617.51	489.178
1618.21	479.845
1618.92	461.56
1619.62	448.306
1620.33	429.311
1621.03	414.515
1621.74	402.788
1622.45	383.604
1623.15	376.005
1623.86	367.396
1624.56	340.916
1625.27	330.046
1625.97	318.293
1626.68	313.27
1627.38	305.944
1628.09	293.264
1628.79	284.687
1629.5	278.589
1630.2	271.548
1630.9	269.189
1631.61	267.778
1632.31	256.578
1633.02	244.875
1633.72	243.272
1634.42	240.425
1635.13	232.351
1635.83	229.036
1636.54	221.691
1637.24	212.88
1637.41	210.689
1638.13	220.248
1638.85	215.029
1639.57	214.254
1640.29	207.146
1641.01	209.149
1641.73	199.485
1642.46	208.155
1643.18	201.158
1643.9	201.05
1644.62	201.053
1645.34	197.611
1646.06	193.281
1646.78	189.506
1647.5	184.62
1648.22	184.623
1648.94	187.96
1649.65	187.296
1650.37	181.299
1651.09	173.746
1651.81	174.861
1652.53	180.975
1653.25	181.533
1653.97	178.536
1654.69	173.539
1655.41	175.542
1656.13	174.323
1656.84	174.437
1657.56	174.996
1658.28	171.554
1659	173.224
1659.72	170.116
1660.44	168.563
1661.16	162.566
1661.87	161.903
1662.59	159.35
1663.31	160.575
1664.03	164.134
1664.74	164.137
1665.46	166.14
1666.18	156.476
1666.9	157.701
1667.61	158.927
1668.33	160.374
1669.05	161.155
1669.77	160.269
1670.48	154.939
1671.2	156.497
1671.92	153.611
1672.63	156.837
1673.35	155.951
1674.07	152.62
1674.78	155.623
1675.5	151.849
1676.21	156.629
1676.93	154.521
1677.65	149.413
1678.36	150.972
1679.08	147.53
1679.79	153.2
1680.51	150.87
1681.22	152.65
1681.94	150.542
1682.66	149.101
1683.37	149.548
1684.09	147.662
1684.8	150.332
1685.52	145.002
1686.23	145.116
1686.95	147.008
1687.66	145.566
1688.38	146.569
1689.09	142.461
1689.8	143.575
1690.52	143.245
1691.23	146.026
1691.95	141.362
1692.66	143.81
1693.37	147.701
1694.09	143.371
1694.8	150.263
1695.52	143.044
1696.23	148.047
1696.94	144.05
1697.66	141.608
1698.37	145.167
1699.08	145.17
1699.8	146.617
1700.51	143.732
1701.22	144.735
1701.94	146.849
1702.65	139.963
1703.36	142.855
1704.07	136.635
1704.79	138.75
1705.5	141.53
1706.21	137.978
1706.92	150.759
1707.63	142.539
1708.35	135.098
1709.06	135.212
1709.77	141.215
1710.48	137.107
1711.19	141.332
1711.9	136.891
1712.62	133.783
1713.33	136.452
1714.04	142.789
1714.75	142.125
1715.46	140.906
1716.17	139.798
1716.88	140.467
1717.59	141.915
1718.3	136.918
1719.02	142.587
1719.73	138.813
1720.44	141.482
1721.15	137.819
1721.86	142.822
1722.57	138.825
1723.28	145.272
1723.99	140.275
1724.7	139.278
1725.41	135.281
1726.12	130.284
1726.83	131.509
1727.54	138.623
1728.25	134.738
1728.96	137.963
1729.66	139.077
1730.37	134.969
1731.08	135.416
1731.79	142.753
1732.5	131.422
1733.21	134.203
1733.92	134.206
1734.63	137.431
1735.33	134.99
1736.04	134.104
1736.75	129.774
1737.46	133.554
1738.17	130.335
1738.88	132.672
1739.58	138.675
1740.29	129.566
1741	133.014
1741.71	129.461
1742.42	134.575
1743.12	131.578
1743.83	133.693
1744.54	131.473
1745.24	129.921
1745.95	132.368
1746.66	134.149
1747.36	133.152
1748.07	128.488
1748.78	134.936
1749.48	133.605
1750.19	136.608
1750.9	134.389
1751.6	131.17
1752.31	132.729
1753.02	131.176
1753.72	128.179
1754.43	130.96
1755.14	130.852
1755.84	135.077
1756.55	133.302
1757.25	124.75
1757.96	133.975
1758.66	129.422
1759.37	128.648
1760.07	132.762
1760.78	132.098
1761.48	128.212
1762.19	130.326
1762.89	129.774
1763.6	133.443
1764.3	126.002
1765.01	132.338
1765.71	131.563
1766.42	128.566
1767.12	127.903
1767.83	128.572
1768.53	123.909
1769.24	128.912
1769.94	133.359
1770.64	130.029
1771.35	131.476
1772.05	131.368
1772.76	135.705
1773.46	128.041
1774.16	127.711
1774.87	126.047
1775.57	126.161
1776.27	123.609
1776.97	131.389
1777.68	129.059
1778.38	125.618
1779.08	127.509
1779.79	131.401
1780.49	122.849
1781.19	130.518
1781.89	129.188
1782.6	132.636
1783.3	129.083
1784	125.086
1784.7	127.645
1785.4	126.203
1786.11	122.651
1786.81	127.765
1787.51	124.101
1788.21	128.437
1788.91	128.218
1789.61	125.777
1790.32	126.224
1791.02	131.338
1791.72	129.119
1792.42	131.789
1793.12	125.014
1793.82	127.795
1794.52	127.464
1795.22	128.356
1795.92	126.026
1796.63	127.251
1797.33	125.365
1798.03	126.591
1798.73	130.816
1799.43	128.041
1800.13	127.822
1800.83	120.825
1801.53	115.939
1802.23	124.164
1802.93	123.834
1803.63	125.948
1804.33	124.84
1805.03	125.954
1805.72	124.735
1806.42	123.071
1807.12	128.852
1807.82	122.41
1808.52	124.413
1809.22	125.194
1809.92	122.197
1810.62	125.2
1811.32	125.425
1812.01	129.54
1812.71	125.098
1813.41	127.212
1814.11	121.549
1814.81	126.774
1815.51	121.332
1816.2	121.446
1816.9	126.005
1817.6	123.23
1818.3	123.567
1819	128.903
1819.69	120.35
1820.39	127.909
1821.09	126.023
1821.79	125.915
1822.48	131.029
1823.18	125.699
1823.88	122.924
1824.57	126.816
1825.27	128.597
1825.97	120.711
1826.66	123.936
1827.36	128.383
1828.06	124.72
1828.75	128.167
1829.45	123.392
1830.14	124.618
1830.84	122.954
1831.54	125.624
1832.23	120.516
1832.93	124.63
1833.62	124.744
1834.32	123.969
1835.01	124.639
1835.71	126.197
1836.41	126.756
1837.1	124.314
1837.8	122.651
1838.49	131.765
1839.19	124.101
1839.88	127.326
1840.58	128.885
1841.27	130.11
1841.97	125.446
1842.66	123.449
1843.36	128.341
1844.05	127.455
1844.74	130.236
1845.44	124.35
1846.13	125.131
1846.83	127.023
1847.52	127.471
1848.21	130.585
1848.91	128.032
1849.6	125.035
1850.29	119.594
1850.99	127.597
1851.68	128.711
1852.37	122.158
1853.07	128.606
1853.76	122.386
1854.45	126.056
1855.15	127.392
1855.84	123.618
1856.53	131.287
1857.23	124.179
1857.92	128.071
1858.61	120.963
1859.3	131.188
1860	128.858
1860.69	130.972
1861.38	131.308
1862.07	126.756
1862.76	123.981
1863.46	130.984
1864.15	126.765
1864.84	128.546
1865.53	128.215
1866.22	126.774
1866.91	129.555
1867.61	129.002
1868.3	127.227
1868.99	132.897
1869.68	131.122
1870.37	130.459
1871.06	131.573
1871.75	122.687
1872.44	125.134
1873.13	130.804
1873.82	128.696
1874.51	124.254
1875.2	128.368
1875.89	130.371
1876.58	130.152
1877.27	130.711
1877.96	128.936
1878.65	130.495
1879.34	125.831
1880.03	128.834
1880.72	131.837
1881.41	129.729
1882.1	128.287
1882.79	125.846
1883.48	128.627
1884.17	128.63
1884.86	132.966
1885.55	126.858
1886.24	124.75
1886.93	126.42
1887.61	126.867
1888.3	129.759
1888.99	127.54
1889.68	125.32
1890.37	126.212
1891.06	127.771
1891.74	126.329
1892.43	124.444
1893.12	131.669
1893.81	126.561
1894.5	126.119
1895.18	129.344
1895.87	127.57
1896.56	129.462
1897.25	119.02
1897.93	126.912
1898.62	123.693
1899.31	121.696
1899.99	126.81
1900.68	125.591
1901.37	124.705
1902.06	119.486
1902.74	124.933
1903.43	123.603
1904.12	122.495
1904.8	124.609
1905.49	122.39
1906.18	125.059
1906.86	123.396
1907.55	127.954
1908.23	122.846
1908.92	119.738
1909.6	121.741
1910.29	120.077
1910.98	123.08
1911.66	120.528
1912.35	120.086
1913.03	122.2
1913.72	121.87
1914.4	120.762
1915.09	119.098
1915.77	120.99
1916.46	122.549
1917.14	123.552
1917.83	117.221
1918.51	122.224
1919.2	122.672
1919.88	119.23
1920.57	119.789
1921.25	124.125
1921.94	126.128
1922.62	122.687
1923.3	121.69
1923.99	124.582
1924.67	120.363
1925.35	119.588
1926.04	122.813
1926.72	119.372
1927.4	115.597
1928.09	117.933
1928.77	121.381
1929.46	117.272
1930.14	124.164
1930.82	117.723
1931.5	123.281
1932.19	121.062
1932.87	121.621
1933.55	120.068
1934.24	123.071
1934.92	121.963
1935.6	118.966
1936.28	121.969
1936.96	121.972
1937.65	121.42
1938.33	121.2
1939.01	120.314
1939.69	120.429
1940.38	121.321
1941.06	116.212
1941.74	119.882
1942.42	121.663
1943.1	122.555
1943.78	116.78
1944.46	121.45
1945.14	118.008
1945.83	120.345
1946.51	118.348
1947.19	114.128
1947.87	120.798
1948.55	118.468
1949.23	121.693
1949.91	122.029
1950.59	121.254
1951.27	119.48
1951.95	121.038
1952.63	119.152
1953.31	116.378
1953.99	116.825
1954.67	117.939
1955.35	110.72
1956.03	120.945
1956.71	119.948
1957.39	119.173
1958.07	119.51
1958.75	126.179
1959.43	121.405
1960.11	118.741
1960.79	113.522
1961.47	124.191
1962.15	120.861
1962.82	125.642
1963.5	126.2
1964.18	120.092
1964.86	120.318
1965.54	117.543
1966.22	116.768
1966.9	119.104
1967.57	118.885
1968.25	116.999
1968.93	115.558
1969.61	124.227
1970.29	117.23
1970.96	118.567
1971.64	116.57
1972.32	116.795
1973	115.687
1973.67	117.245
1974.35	121.36
1975.03	118.474
1975.7	117.255
1976.38	121.591
1977.06	117.483
1977.74	123.152
1978.41	121.6
1979.09	117.27
1979.77	122.05
1980.44	118.387
1981.12	117.834
1981.8	121.726
1982.47	125.951
1983.15	123.51
1983.82	123.624
1984.5	118.405
1985.18	117.519
1985.85	124.633
1986.53	123.858
1987.2	120.75
1987.88	119.197
1988.55	119.978
1989.23	123.203
1989.9	122.206
1990.58	123.098
1991.26	121.435
1991.93	116.993
1992.61	117.996
1993.28	118.444
1993.95	125.113
1994.63	119.228
1995.3	120.342
1995.98	121.122
1996.65	125.014
1997.33	122.351
1998	120.909
1998.68	121.912
1999.35	120.693
2000.02	118.585
2000.7	121.366
2001.37	120.369
2002.05	121.372
2002.72	117.264
2003.39	126.267
2004.07	120.825
2004.74	125.273
2005.41	119.053
2006.08	117.39
2006.76	119.393
2007.43	120.507
2008.1	127.176
2008.78	125.735
2009.45	124.96
2010.12	122.963
2010.8	123.188
2011.47	121.525
2012.14	122.194
2012.81	123.531
2013.48	122.867
2014.16	118.981
2014.83	124.095
2015.5	125.876
2016.17	121.879
2016.85	117.438
2017.52	121.996
2018.19	128.999
2018.86	122.002
2019.53	119.116
2020.2	128.119
2020.87	125.9
2021.54	125.125
2022.22	121.462
2022.89	126.465
2023.56	121.579
2024.23	116.915
2024.9	125.696
2025.57	124.032
2026.24	121.369
2026.91	121.038
2027.58	129.93
2028.25	122.155
2028.92	121.381
2029.59	118.273
2030.26	116.942
2030.93	121.39
2031.6	125.059
2032.27	127.729
2032.94	120.621
2033.61	124.735
2034.28	121.627
2034.95	121.186
2035.62	121.855
2036.29	124.747
2036.96	121.861
2037.62	120.753
2038.29	120.534
2038.96	122.204
2039.63	124.095
2040.3	122.543
2040.97	117.768
2041.64	124.66
2042.31	124.219
2042.97	119.666
2043.64	125.447
2044.31	118.339
2044.98	119.675
2045.65	125.234
2046.31	122.348
2046.98	120.684
2047.65	123.687
2048.32	121.357
2048.98	119.582
2049.65	121.585
2050.32	119.81
2050.99	120.258
2051.65	119.038
2052.32	118.041
2052.99	122.267
2053.66	120.27
2054.32	115.273
2054.99	118.498
2055.66	117.945
2056.32	119.948
2056.99	115.396
2057.65	121.065
2058.32	123.735
2058.99	118.071
2059.65	115.963
2060.32	118.744
2060.99	122.08
2061.65	116.861
2062.32	116.198
2062.98	121.312
2063.65	122.981
2064.31	120.207
2064.98	120.765
2065.64	119.102
2066.31	121.216
2066.97	122.108
2067.64	118.222
2068.3	120.78
2068.97	121.005
2069.64	120.231
2070.3	118.678
2070.96	117.792
2071.63	113.573
2072.29	121.465
2072.96	115.246
2073.62	119.026
2074.29	123.474
2074.95	119.81
2075.61	118.035
2076.28	118.594
2076.94	122.708
2077.6	116.044
2078.27	114.714
2078.93	122.273
2079.6	111.72
2080.26	117.056
2080.92	120.504
2081.59	114.285
2082.25	116.177
2082.91	116.068
2083.57	114.294
2084.24	114.297
2084.9	117.633
2085.56	116.636
2086.23	114.084
2086.89	111.642
2087.55	120.978
2088.21	117.87
2088.88	116.651
2089.54	113.987
2090.2	116.435
2090.86	120.549
2091.52	115.774
2092.19	117.999
2092.85	117.114
2093.51	118.783
2094.17	113.675
2094.83	115.678
2095.49	115.792
2096.15	117.573
2096.81	115.354
2097.48	112.357
2098.14	116.804
2098.8	121.363
2099.46	119.255
2100.12	121.369
2100.78	121.705
2101.44	114.819
2102.1	118.267
2102.76	115.936
2103.42	115.606
2104.08	120.165
2104.74	117.168
2105.4	116.837
2106.06	121.507
2106.72	117.066
2107.38	115.291
2108.04	115.183
2108.7	110.519
2109.36	121.078
2110.02	117.636
2110.68	115.084
2111.34	118.975
2112	114.09
2112.66	117.537
2113.32	120.429
2113.98	116.987
2114.64	117.213
2115.29	117.549
2115.95	107.996
2116.61	113.777
2117.27	119.447
2117.93	115.006
2118.59	108.231
2119.24	114.234
2119.9	115.237
2120.56	115.129
2121.22	114.465
2121.88	112.468
2122.54	119.804
2123.19	123.474
2123.85	117.033
2124.51	116.924
2125.17	113.816
2125.82	113.708
2126.48	117.489
2127.14	114.603
2127.79	115.606
2128.45	114.165
2129.11	110.723
2129.76	120.948
2130.42	115.729
2131.08	114.954
2131.73	115.846
2132.39	117.738
2133.05	120.852
2133.7	114.633
2134.36	114.969
2135.02	112.639
2135.67	114.087
2136.33	112.423
2136.98	115.648
2137.64	116.873
2138.3	114.099
2138.95	116.435
2139.61	111.216
2140.26	114.997
2140.92	119.111
2141.57	115.447
2142.23	116.006
2142.88	118.231
2143.54	114.345
2144.19	116.57
2144.85	114.573
2145.5	114.243
2146.16	113.246
2146.81	113.471
2147.47	115.03
2148.12	117.921
2148.78	113.369
2149.43	115.261
2150.08	114.153
2150.74	118.267
2151.39	118.714
2152.04	118.828
2152.7	117.609
2153.35	119.723
2154.01	113.949
2154.66	116.174
2155.31	114.288
2155.97	113.069
2156.62	117.627
2157.27	117.852
2157.93	112.078
2158.58	115.858
2159.23	109.75
2159.89	116.531
2160.54	110.756
2161.19	117.87
2161.84	117.873
2162.5	114.654
2163.15	114.879
2163.8	116.549
2164.45	117.774
2165.11	114.555
2165.76	114.003
2166.41	112.228
2167.06	112.564
2167.71	117.012
2168.37	114.903
2169.02	108.573
2169.67	115.687
2170.32	114.135
2170.97	112.804
2171.62	113.807
2172.27	113.81
2172.92	109.369
2173.58	114.928
2174.23	110.153
2174.88	114.6
2175.53	114.492
2176.18	110.495
2176.83	116.498
2177.48	117.723
2178.13	113.726
2178.78	113.952
2179.43	108.177
2180.08	114.069
2180.73	112.294
2181.38	111.297
2182.03	113.189
2182.68	113.303
2183.33	107.75
2183.98	115.42
2184.63	114.534
2185.28	115.204
2185.93	116.429
2186.58	111.432
2187.23	113.991
2187.88	112.66
2188.53	116.108
2189.17	117.444
2189.82	116.225
2190.47	110.006
2191.12	114.564
2191.77	113.345
2192.42	113.348
2193.07	109.684
2193.71	112.015
2194.36	109.142
2195.01	114.019
2195.66	115.009
2196.31	121.29
2196.95	117.125
2197.6	114.429
2198.25	109.962
2198.9	115.36
2199.55	112.026
2200.19	112.368
2200.84	115.779
2201.49	116.9
2202.14	113.742
2202.78	110.572
2203.43	111.206
2204.08	116.039
2204.72	114.823
2205.37	116.615
2206.02	113.058
2206.66	115.031
2207.31	117.319
2207.96	115.773
2208.6	112.52
2209.25	116.383
2209.9	119.273
2210.54	114.043
2211.19	117.62
2211.83	112.703
2212.48	112.692
2213.13	115.435
2213.77	112.174
2214.42	114.068
2215.06	114.072
2215.71	111.529
2216.35	111.761
2217	113.44
2217.64	113.743
2218.29	112.012
2218.93	113.155
2219.58	114.502
2220.22	113.693
2220.87	114.44
2221.51	114.648
2222.16	114.571
2222.8	110.343
2223.45	112.757
2224.09	112.341
2224.73	111.782
2225.38	114.075
2226.02	113.837
2226.67	113.042
2227.31	112.916
2227.95	113.088
2228.6	114.372
2229.24	116.032
2229.88	114.844
2230.53	116.176
2231.17	114.354
2231.82	116.019
2232.46	113.409
2233.1	115.12
2233.75	114.003
2234.39	113.375
2235.03	114.593
2235.67	111.248
2236.32	115.516
2236.96	111.437
2237.6	111.444
2238.24	113.139
2238.89	115.763
2239.53	113.619
2240.17	111.503
2240.81	112.987
2241.45	114.682
2242.1	116.067
2242.74	116.606
2243.38	114.657
2244.02	110.831
2244.66	112.842
2245.3	116.891
2245.95	115.449
2246.59	113.745
2247.23	113.021
2247.87	114.037
2248.51	114.091
2249.15	113.456
2249.79	115.499
2250.43	115.101
2251.07	114.945
2251.71	115.325
2252.36	113.187
2253	114.522
2253.64	113.534
2254.28	121.682
2254.92	113.722
2255.56	116.348
2256.2	116.839
2256.84	119.526
2257.48	117.821
2258.12	120.621
2258.76	118.437
2259.4	112.441
2260.04	114.944
2260.67	111.297
2261.31	116.732
2261.95	116.732
2262.59	117.801
2262.71	118.114
2263.37	115.231
2264.03	118.903
2264.68	117.798
2265.34	119.359
2265.99	118.032
2266.65	114.593
2267.3	117.154
2267.96	114.271
2268.62	118.055
2269.27	115.172
2269.93	111.955
2270.58	118.961
2271.24	120.078
2271.89	111.751
2272.55	112.645
2273.2	117.54
2273.86	119.213
2274.51	116.218
2275.16	119.113
2275.82	119.452
2276.47	118.347
2277.13	121.242
2277.78	116.47
2278.44	116.031
2279.09	123.37
2279.74	118.376
2280.4	115.715
2281.05	122.054
2281.71	116.949
2282.36	117.399
2283.01	120.849
2283.67	118.189
2284.32	122.75
2284.97	122.089
2285.63	120.539
2286.28	116.434
2286.93	121.218
2287.59	125.557
2288.24	117.118
2288.89	121.902
2289.54	123.796
2290.2	119.469
2290.85	120.919
2291.5	118.925
2292.15	120.042
2292.81	127.048
2293.46	119.054
2294.11	118.837
2294.76	120.065
2295.42	124.627
2296.07	121.966
2296.72	119.971
2297.37	125.422
2298.02	126.761
2298.67	123.1
2299.33	123.772
2299.98	119.556
2300.63	121.34
2301.28	116.568
2301.93	119.129
2302.58	127.357
2303.23	126.363
2303.88	127.369
2304.53	119.375
2305.19	126.38
2305.84	121.719
2306.49	121.948
2307.14	120.731
2307.79	123.404
2308.44	122.854
2309.09	127.749
2309.74	122.643
2310.39	127.76
2311.04	125.21
2311.69	123.216
2312.34	122.333
2312.99	123.561
2313.64	123.234
2314.29	123.906
2314.94	125.134
2315.59	126.807
2316.24	125.59
2316.89	127.263
2317.53	119.602
2318.18	122.941
2318.83	129.613
2319.48	124.508
2320.13	122.625
2320.78	123.409
2321.43	129.859
2322.08	126.865
2322.73	122.759
2323.37	130.321
2324.02	130.66
2324.67	132.888
2325.32	131.338
2325.97	127.788
2326.61	137.461
2327.26	141.022
2327.91	141.028
2328.56	148.589
2329.21	142.484
2329.85	139.046
2330.5	135.718
2331.15	130.724
2331.8	132.73
2332.44	135.069
2333.09	127.63
2333.74	131.747
2334.38	127.308
2335.03	131.092
2335.68	131.876
2336.33	131.993
2336.97	129.998
2337.62	133.671
2338.26	130.343
2338.91	131.905
2339.56	131.799
2340.2	131.361
2340.85	133.478
2341.5	141.039
2342.14	134.378
2342.79	131.162
2343.43	133.612
2344.08	134.729
2344.73	128.401
2345.37	131.407
2346.02	134.635
2346.66	133.752
2347.31	137.425
2347.95	133.764
2348.6	132.77
2349.24	137.775
2349.89	139.003
2350.53	136.009
2351.18	134.571
2351.82	138.243
2352.47	136.138
2353.11	132.477
2353.76	139.261
2354.4	140.155
2355.05	136.161
2355.69	137.833
2356.33	139.617
2356.98	141.845
2357.62	143.184
2358.27	137.523
2358.91	137.974
2359.55	140.202
2360.2	144.319
2360.84	142.436
2361.49	137.552
2362.13	142.669
2362.77	145.564
2363.42	145.014
2364.06	146.909
2364.7	148.359
2365.35	147.476
2365.99	144.482
2366.63	145.043
2367.28	145.494
2367.92	146.722
2368.56	146.727
2369.2	152.844
2369.84	147.739
2370.49	153.3
2371.13	152.973
2371.77	156.868
2372.41	141.429
2373.06	142.546
2373.7	152.663
2374.34	151.335
2374.98	155.341
2375.62	153.347
2376.27	153.797
2376.91	152.692
2377.55	157.142
2378.19	156.481
2378.83	153.598
2379.47	155.493
2380.11	158.721
2380.76	155.949
2381.4	155.733
2382.04	151.738
2382.68	159.744
2383.32	155.194
2383.96	153.867
2384.6	157.317
2385.24	157.545
2385.88	154.551
2386.52	160.446
2387.16	154.785
2387.8	155.791
2388.44	157.685
2389.08	156.691
2389.72	157.697
2390.36	159.925
2391	159.598
2391.64	158.048
2392.28	158.387
2392.92	165.059
2393.56	159.065
2394.2	159.404
2394.84	162.077
2395.48	163.638
2396.12	163.088
2396.76	161.983
2397.4	168.656
2398.03	164.217
2398.68	169.445
2399.31	160.229
2399.95	161.79
2400.59	166.351
2401.23	169.135
2401.87	165.252
2402.51	165.48
2403.14	164.263
2403.78	169.158
2404.42	168.831
2405.06	171.948
2405.7	170.62
2406.33	168.737
2406.97	172.965
2407.61	167.526
2408.25	172.199
2408.89	175.427
2409.52	169.544
2410.16	170.772
2410.8	174.555
2411.43	173.339
2412.07	178.9
2412.71	182.128
2413.35	181.245
2413.98	182.696
2414.62	179.257
2415.26	174.596
2415.89	171.935
2416.53	178.385
2417.17	183.502
2417.8	180.508
2418.44	178.292
2419.08	182.298
2419.71	180.192
2420.35	183.309
2420.98	179.982
2421.62	190.654
2422.26	188.216
2422.89	191.888
2423.53	189.449
2424.16	186.011
2424.8	188.461
2425.43	190.133
2426.07	188.695
2426.7	193.034
2427.34	194.04
2427.97	200.934
2428.61	195.163
2429.24	199.168
2429.88	195.73
2430.51	193.958
2431.15	193.852
2431.78	192.969
2432.42	202.197
2433.05	200.759
2433.69	196.209
2434.32	200.437
2434.96	199.221
2435.59	202.893
2436.22	200.677
2436.86	199.238
2437.49	198.577
2438.12	204.027
2438.76	205.144
2439.39	202.372
2440.03	200.378
2440.66	200.384
2441.29	208.834
2441.93	197.951
2442.56	202.179
2443.19	203.852
2443.82	200.857
2444.46	204.308
2445.09	201.536
2445.72	200.542
2446.36	201.436
2446.99	208.998
2447.62	202.337
2448.26	203.009
2448.89	199.126
2449.52	202.354
2450.15	207.916
2450.78	195.255
2451.42	206.372
2452.05	199.822
2452.68	197.606
2453.31	197.056
2453.94	200.506
2454.58	197.956
2455.21	199.184
2455.84	196.635
2456.47	200.64
2457.1	190.202
2457.73	190.319
2458.36	196.769
2459	193.997
2459.63	190.558
2460.26	194.897
2460.89	197.348
2461.52	191.687
2462.15	195.248
2462.78	191.81
2463.41	190.149
2464.04	188.266
2464.67	189.827
2465.3	193.611
2465.93	192.061
2466.56	190.067
2467.19	188.406
2467.82	191.634
2468.45	191.529
2469.08	191.534
2469.71	185.651
2470.34	181.435
2470.97	184.885
2471.6	189.891
2472.23	197.563
2472.86	183.236
2473.49	184.019
2474.12	186.581
2474.75	184.476
2475.38	177.704
2476	183.487
2476.63	177.604
2477.26	183.054
2477.89	181.282
2478.52	189.177
2479.15	179.405
2479.78	181.078
2480.4	181.306
2481.03	183.423
2481.66	188.984
2482.29	184.434
2482.92	177.44
2483.55	179.779
2484.17	179.007
2484.8	178.013
2485.43	183.241
2486.06	171.691
2486.68	178.697
2487.31	180.925
2487.94	175.042
2488.57	174.937
2489.19	176.276
2489.82	183.726
2490.45	178.065
2491.07	171.182
2491.7	176.632
2492.33	177.416
2492.96	172.644
2493.58	177.872
2494.21	181.1
2494.84	177.328
2495.46	171.334
2496.09	177.895
2496.72	172.346
2497.34	176.796
2497.97	180.024
2498.59	177.363
2499.22	178.591
2499.84	177.708
2500.47	177.714
2501.1	175.608
2501.72	177.281
2502.35	176.287
2502.97	172.181
2503.6	178.409
2504.22	177.637
2504.85	181.754
2505.47	181.76
2506.1	173.322
2506.73	183.55
2507.35	176.778
2507.97	174.672
2508.6	172.9
2509.22	175.684
2509.85	174.912
2510.47	175.14
2511.1	177.146
2511.72	177.041
2512.35	178.38
2512.97	178.386
2513.59	176.725
2514.22	175.397
2514.84	173.514
2515.47	169.298
2516.09	169.303
2516.71	183.531
2517.34	174.315
2517.96	176.765
2518.58	175.993
2519.21	173.221
2519.83	178.005
2520.45	175.233
2521.08	174.128
2521.7	179.8
2522.32	178.473
2522.95	173.59
2523.57	171.373
2524.19	177.935
2524.81	178.274
2525.44	171.502
2526.06	169.508
2526.68	173.18
2527.3	180.63
2527.93	178.303
2528.55	185.864
2529.17	171.092
2529.79	173.542
2530.41	175.326
2531.04	176.332
2531.66	182.004
2532.28	175.01
2532.9	174.46
2533.52	176.688
2534.15	176.583
2534.77	174.033
2535.39	183.372
2536.01	178.156
2536.63	179.051
2537.25	177.501
2537.87	175.618
2538.49	178.735
2539.11	178.63
2539.73	177.635
2540.36	181.974
2540.98	169.425
2541.6	171.542
2542.22	173.103
2542.84	177.775
2543.46	173.337
2544.08	175.009
2544.7	177.793
2545.32	181.688
2545.94	170.36
2546.56	179.033
2547.18	177.816
2547.8	175.266
2548.42	180.383
2549.04	177.611
2549.66	180.617
2550.28	178.956
2550.89	176.851
2551.51	180.412
2552.13	179.974
2552.75	175.202
2553.37	170.43
2553.99	178.436
2554.61	181.886
2555.23	189.669
2555.85	175.453
2556.46	179.681
2557.08	185.465
2557.7	183.47
2558.32	181.143
2558.94	186.482
2559.56	186.266
2560.17	178.272
2560.79	176.611
2561.41	171.616
2562.03	184.733
2562.65	180.739
2563.26	178.523
2563.88	186.529
2564.5	186.423
2565.12	187.096
2565.73	186.324
2566.35	183.107
2566.97	181.113
2567.59	185.786
2568.2	188.236
2568.82	185.464
2569.44	179.359
2570.05	185.698
2570.67	193.593
2571.29	184.487
2571.9	188.382
2572.52	185.388
2573.14	182.616
2573.75	178.733
2574.37	185.183
2574.99	187.967
2575.6	186.639
2576.22	185.423
2576.83	193.873
2577.45	186.545
2578.07	184.551
2578.68	196.001
2579.3	192.785
2579.91	193.124
2580.53	191.463
2581.14	196.58
2581.76	195.142
2582.37	189.592
2582.99	189.264
2583.6	190.715
2584.22	198.72
2584.83	193.504
2585.45	193.954
2586.06	201.627
2586.68	197.077
2587.29	194.638
2587.91	205.2
2588.52	195.428
2589.14	199.1
2589.75	199.995
2590.36	201.001
2590.98	198.784
2591.59	198.79
2592.21	203.685
2592.82	204.024
2593.43	201.363
2594.05	209.035
2594.66	201.597
2595.27	207.047
2595.89	205.275
2596.5	204.614
2597.12	205.398
2597.73	208.959
2598.34	211.298
2598.95	215.526
2599.57	212.088
2600.18	204.205
2600.79	216.099
2601.41	220.439
2602.02	217.667
2602.63	213.45
2603.24	221.012
2603.86	220.906
2604.47	222.468
2605.08	218.362
2605.69	228.813
2606.31	219.707
2606.92	223.824
2607.53	224.83
2608.14	229.725
2608.75	227.397
2609.36	224.181
2609.98	232.631
2610.59	233.97
2611.2	232.865
2611.81	233.871
2612.42	242.099
2613.03	238.105
2613.65	237.555
2614.26	240.005
2614.87	248.789
2615.48	253.461
2616.09	243.689
2616.7	248.362
2617.31	253.256
2617.92	245.707
2618.53	252.157
2619.14	248.163
2619.75	253.835
2620.36	260.174
2620.97	264.847
2621.58	269.408
2622.19	268.081
2622.8	259.864
2623.41	276.759
2624.02	281.098
2624.63	270.437
2625.24	282.554
2625.85	276.782
2626.46	284.899
2627.07	293.349
2627.68	288.911
2628.29	286.25
2628.9	292.589
2629.51	291.484
2630.12	297.934
2630.73	310.162
2631.33	306.723
2631.94	307.396
2632.55	314.401
2633.16	314.407
2633.77	320.747
2634.38	316.863
2634.99	329.425
2635.59	342.319
2636.2	335.77
2636.81	340.553
2637.42	346.004
2638.03	343.009
2638.64	360.015
2639.24	365.354
2639.85	362.693
2640.46	366.81
2641.07	381.483
2641.67	374.6
2642.28	375.494
2642.89	387.5
2643.5	399.839
2644.1	408.068
2644.71	403.74
2645.32	407.079
2645.92	420.863
2646.53	422.424
2647.14	420.763
2647.74	431.769
2648.35	439.775
2648.96	448.447
2649.57	438.009
2650.17	458.57
2650.78	462.242
2651.38	470.137
2651.99	489.81
2652.6	490.482
2653.2	498.377
2653.81	501.16
2654.41	509.722
2655.02	513.394
2655.63	514.289
2656.23	535.295
2656.84	539.967
2657.44	552.418
2658.05	552.979
2658.65	565.096
2659.26	581.213
2659.86	582.663
2660.47	588.891
2661.07	594.675
2661.68	618.458
2662.28	624.909
2662.89	625.248
2663.49	631.587
2664.1	650.481
2664.7	666.932
2665.31	676.049
2665.91	676.832
2666.52	690.727
2667.12	704.399
2667.72	711.85
2668.33	734.855
2668.93	741.639
2669.54	738.089
2670.14	765.984
2670.74	765.212
2671.35	765.996
2671.95	792.89
2672.55	787.007
2673.16	796.791
2673.76	826.797
2674.36	822.802
2674.97	822.808
2675.57	848.481
2676.17	849.375
2676.78	859.604
2677.38	884.943
2677.98	868.06
2678.59	881.621
2679.19	899.293
2679.79	887.299
2680.39	905.638
2681	919.644
2681.6	914.983
2682.2	931.656
2682.8	909.328
2683.4	919.667
2684.01	921.895
2684.61	931.901
2685.21	928.796
2685.81	916.58
2686.41	933.585
2687.02	934.813
2687.62	922.93
2688.22	915.158
2688.82	929.609
2689.42	933.392
2690.02	912.731
2690.62	918.515
2691.22	903.965
2691.83	904.415
2692.43	888.31
2693.03	884.427
2693.63	882.1
2694.23	844.105
2694.83	880.556
2695.43	850.672
2696.03	845.345
2696.63	826.573
2697.23	811.912
2697.83	802.585
2698.43	811.146
2699.03	789.152
2699.63	779.491
2700.23	776.274
2700.83	757.169
2701.43	746.175
2702.03	743.736
2702.63	729.964
2703.23	723.637
2703.83	717.532
2704.43	707.426
2705.03	690.099
2705.63	673.549
2706.23	663.888
2706.83	661.672
2707.43	644.122
2708.02	622.794
2708.62	623.911
2709.22	620.695
2709.82	595.479
2710.42	583.707
2711.02	575.379
2711.62	573.163
2712.21	562.391
2712.81	554.063
2713.41	544.513
2714.01	551.297
2714.61	535.192
2715.2	518.309
2715.8	498.537
2716.4	495.654
2717	485.659
2717.6	476.332
2718.19	474.671
2718.79	464.677
2719.39	460.794
2719.98	448.022
2720.58	450.917
2721.18	439.589
2721.78	420.595
2722.37	419.378
2722.97	418.606
2723.57	413.39
2724.16	400.285
2724.76	393.957
2725.36	398.185
2725.95	390.191
2726.55	382.086
2727.15	381.758
2727.74	367.875
2728.34	366.77
2728.94	352.664
2729.53	357.67
2730.13	348.121
2730.72	338.571
2731.32	339.91
2731.91	333.027
2732.51	329.588
2733.11	328.705
2733.7	319.044
2734.3	314.606
2734.89	304.278
2735.49	308.728
2736.08	300.512
2736.68	304.629
2737.27	299.857
2737.87	295.863
2738.46	281.98
2739.06	285.652
2739.65	284.547
2740.25	278.33
2740.84	285.003
2741.44	276.12
2742.03	269.903
2742.63	257.243
2743.22	256.137
2743.81	260.143
2744.41	253.482
2745	254.488
2745.6	249.827
2746.19	256.5
2746.79	254.283
2747.38	244.622
2747.97	246.628
2748.57	246.078
2749.16	237.418
2749.75	233.312
2750.35	235.763
2750.94	239.435
2751.53	228.33
2752.13	221.336
2752.72	230.897
2753.31	227.236
2753.9	216.131
2754.5	215.692
2755.09	217.476
2755.68	224.37
2756.28	219.821
2756.87	218.271
2757.46	204.054
2758.05	213.06
2758.64	221.844
2759.24	209.627
2759.83	208.522
2760.42	204.861
2761.01	201.867
2761.6	207.54
2762.2	197.768
2762.79	199.662
2763.38	204.113
2763.97	201.341
2764.56	200.013
2765.16	207.019
2765.75	199.802
2766.34	199.142
2766.93	194.925
2767.52	190.264
2768.11	195.826
2768.7	189.387
2769.29	190.948
2769.88	192.065
2770.48	194.819
2771.06	189.049
2771.66	187.415
2772.25	186.077
2772.84	186.908
2773.43	186.493
2774.02	185.615
2774.61	188.716
2775.2	186.577
2775.79	183.3
2776.38	179.591
2776.97	185.424
2777.56	190.211
2778.15	184.024
2778.74	180.885
2779.33	183.956
2779.91	175.44
2780.51	177.435
2781.09	174.849
2781.68	172.777
2782.27	173.729
2782.86	173.543
2783.45	180.477
2784.04	180.111
2784.63	173.659
2785.22	173.442
2785.81	174.487
2786.39	176.425
2786.98	172.26
2787.57	169.497
2788.16	172.914
2788.75	170.049
2789.34	173.465
2789.93	171.287
2790.51	172.191
2791.1	167.842
2791.69	171.543
2792.28	176.8
2792.86	173.329
2793.45	169.404
2794.04	169.88
2794.63	170.36
2795.22	164.555
2795.8	168.362
2796.39	169.651
2796.98	167.828
2797.56	168.427
2798.15	165.72
2798.74	168.29
2799.32	168.007
2799.91	167.756
2800.5	164.451
2801.09	165.285
2801.67	165.816
2802.26	167.117
2802.84	162.782
2803.43	163.356
2804.02	164.305
2804.6	164.176
2805.19	166.453
2805.78	164.759
2806.36	161.121
2806.95	161.444
2807.53	161.6
2808.12	164.808
2808.71	165.326
2809.29	163.218
2809.88	160.39
2810.46	162.683
2811.05	164.517
2811.63	160.142
2812.22	163.46
2812.8	164.443
2813.39	161.823
2813.97	159.059
2814.56	159.403
2815.14	160.652
2815.73	162.024
2816.31	158.352
2816.9	159.826
2817.48	159.625
2818.07	162.266
2818.65	163.124
2819.23	158.336
2819.82	162.692
2820.4	163.147
2820.99	158.794
2821.57	161.007
2822.16	161.247
2822.74	161.065
2823.32	156.614
2823.91	161.629
2824.49	159.907
2825.07	162.095
2825.66	161.883
2826.24	159.809
2826.82	159.179
2827.41	157.941
2827.99	156.337
2828.57	156.661
2829.16	159.79
2829.74	160.133
2830.32	157.023
2830.91	159.877
2831.21	164.415
2831.81	153.082
2832.41	153.638
2833.01	160.527
2833.61	159.861
2834.2	167.528
2834.8	162.64
2835.4	160.196
2836	156.53
2836.6	160.753
2837.2	161.087
2837.8	164.865
2838.39	161.199
2838.99	156.977
2839.59	165.533
2840.19	159.2
2840.79	158.201
2841.38	154.535
2841.98	157.868
2842.58	156.869
2843.18	156.092
2843.77	157.092
2844.37	160.093
2844.97	159.315
2845.57	152.094
2846.16	160.205
2846.76	150.65
2847.36	161.762
2847.95	157.207
2848.55	157.763
2849.15	155.986
2849.75	163.986
2850.34	163.32
2850.94	160.098
2851.54	160.877
2852.13	160.099
2852.73	159.878
2853.32	160.322
2853.92	160.656
2854.52	156.657
2855.11	155.435
2855.71	156.547
2856.3	161.436
2856.9	157.992
2857.5	164.215
2858.09	162.66
2858.69	164.66
2859.28	165.883
2859.88	159.773
2860.48	156.884
2861.07	164.774
2861.67	159.996
2862.26	156.663
2862.86	159.108
2863.45	155.776
2864.05	160.443
2864.64	156.888
2865.24	155.666
2865.83	161.667
2866.43	163.445
2867.02	158.001
2867.62	157.557
2868.21	158.002
2868.8	160.78
2869.4	158.225
2869.99	157.781
2870.59	164.559
2871.18	160.227
2871.77	160.56
2872.37	160.005
2872.96	160.561
2873.56	162.34
2874.15	161.34
2874.74	155.896
2875.34	159.008
2875.93	158.12
2876.52	165.676
2877.12	156.565
2877.71	162.566
2878.3	161.566
2878.9	164.344
2879.49	159.345
2880.08	162.679
2880.68	166.013
2881.27	157.458
2881.86	157.236
2882.46	164.57
2883.05	164.903
2883.64	163.237
2884.23	160.46
2884.82	163.127
2885.42	165.35
2886.01	164.462
2886.6	168.907
2887.19	170.24
2887.79	165.13
2888.38	157.464
2888.97	168.464
2889.56	166.465
2890.15	165.465
2890.74	167.466
2891.34	168.911
2891.93	167.689
2892.52	165.467
2893.11	169.912
2893.7	176.024
2894.29	174.358
2894.89	169.247
2895.48	171.025
2896.07	171.026
2896.66	165.915
2897.25	165.36
2897.84	171.027
2898.43	163.139
2899.02	173.917
2899.61	173.251
2900.2	172.14
2900.79	172.03
2901.38	172.808
2901.97	174.364
2902.56	168.587
2903.15	177.365
2903.74	170.81
2904.33	171.7
2904.92	176.589
2905.51	170.145
2906.1	174.701
2906.69	181.035
2907.28	175.813
2907.87	177.814
2908.46	175.481
2909.05	176.815
2909.64	176.704
2910.23	180.594
2910.82	181.261
2911.41	179.483
2912	183.151
2912.58	180.707
2913.17	180.374
2913.76	178.374
2914.35	179.264
2914.94	182.264
2915.53	181.931
2916.12	178.154
2916.71	182.71
2917.29	180.822
2917.88	181.378
2918.47	177.378
2919.06	180.935
2919.65	180.491
2920.23	194.713
2920.82	187.269
2921.41	186.603
2922	176.27
2922.58	182.493
2923.17	186.827
2923.76	188.494
2924.35	181.05
2924.93	176.717
2925.52	184.385
2926.11	186.274
2926.7	187.83
2927.28	183.608
2927.87	179.831
2928.46	188.943
2929.05	179.277
2929.63	187.277
2930.22	181.055
2930.8	179.945
2931.39	183.723
2931.98	183.612
2932.57	179.28
2933.15	186.725
2933.74	183.281
2934.32	185.837
2934.91	180.171
2935.5	183.504
2936.08	181.172
2936.67	186.283
2937.25	181.395
2937.84	190.84
2938.42	183.062
2939.01	184.507
2939.6	176.397
2940.18	175.286
2940.77	176.176
2941.35	180.398
2941.94	176.954
2942.52	174.844
2943.11	176.622
2943.69	175.178
2944.28	179.179
2944.86	182.846
2945.45	178.291
2946.03	177.402
2946.62	168.625
2947.2	175.403
2947.79	171.515
2948.37	174.738
2948.95	171.961
2949.54	169.405
2950.12	172.517
2950.71	164.74
2951.29	168.074
2951.88	168.519
2952.46	167.63
2953.04	165.075
2953.63	167.076
2954.21	166.187
2954.79	165.854
2955.38	170.188
2955.96	163.744
2956.54	171.412
2957.13	168.412
2957.71	162.524
2958.29	162.413
2958.88	160.08
2959.46	160.747
2960.04	160.526
2960.63	162.415
2961.21	155.527
2961.79	165.861
2962.37	160.861
2962.96	156.084
2963.54	161.751
2964.12	158.085
2964.7	154.641
2965.29	152.308
2965.87	158.531
2966.45	154.531
2967.03	153.198
2967.61	149.977
2968.2	149.755
2968.78	146.978
2969.36	152.978
2969.94	146.312
2970.52	153.313
2971.1	154.202
2971.69	148.536
2972.27	148.759
2972.85	140.426
2973.43	145.204
2974.01	146.316
2974.59	146.761
2975.17	137.872
2975.76	142.095
2976.34	151.318
2976.92	144.985
2977.5	142.319
2978.08	137.764
2978.66	139.875
2979.24	140.098
2979.82	142.987
2980.4	141.321
2980.98	140.877
2981.56	139.878
2982.14	136.767
2982.72	137.768
2983.3	139.324
2983.88	134.435
2984.46	136.88
2985.04	138.659
2985.62	139.77
2986.2	137.882
2986.78	135.994
2987.36	140.55
2987.94	131.772
2988.52	130.662
2989.1	136.44
2989.68	135.996
2990.26	135.886
2990.84	134.219
2991.42	132.998
2991.99	130.665
2992.57	131.332
2993.15	131.11
2993.73	134.222
2994.31	129.334
2994.89	131.89
2995.47	129.446
2996.04	125.224
2996.62	132.558
2997.2	130.225
2997.78	130.67
2998.36	138.448
2998.93	129.115
2999.51	129.56
3000.09	133.005
3000.67	127.006
3001.25	128.34
3001.82	128.562
3002.4	127.563
3002.98	129.008
3003.56	130.675
3004.13	124.453
3004.71	132.12
3005.29	125.899
3005.87	123.121
3006.44	128.455
3007.02	130.234
3007.6	132.123
3008.17	127.124
3008.75	128.013
3009.33	128.458
3009.9	128.347
3010.48	125.014
3011.06	120.682
3011.63	125.127
3012.21	119.238
3012.79	123.016
3013.36	124.573
3013.94	125.462
3014.51	125.351
3015.09	127.241
3015.67	126.13
3016.24	128.908
3016.82	127.131
3017.39	122.909
3017.97	119.354
3018.55	121.022
3019.12	122.689
3019.7	123.911
3020.27	123.134
3020.85	122.468
3021.42	129.246
3022	125.913
3022.57	122.358
3023.15	126.359
3023.72	125.137
3024.3	121.916
3024.87	123.36
3025.45	122.917
3026.02	120.473
3026.59	125.029
3027.17	118.363
3027.74	119.03
3028.32	128.364
3028.89	120.475
3029.47	124.365
3030.04	119.254
3030.61	119.032
3031.19	125.588
3031.76	126.033
3032.34	123.478
3032.91	124.257
3033.49	119.924
3034.06	117.035
3034.63	119.702
3035.2	124.147
3035.78	123.815
3036.35	119.704
3036.93	124.371
3037.5	119.261
3038.07	120.483
3038.64	118.595
3039.22	124.595
3039.79	119.485
3040.36	115.819
3040.94	119.819
3041.51	123.486
3042.08	119.154
3042.65	124.043
3043.23	122.488
3043.8	120.822
3044.37	116.711
3044.94	122.489
3045.52	121.379
3046.09	117.268
3046.66	119.824
3047.23	120.491
3047.8	116.381
3048.38	124.937
3048.95	123.937
3049.52	117.938
3050.09	125.494
3050.66	120.606
3051.23	117.162
3051.8	124.94
3052.38	126.274
3052.95	120.385
3053.52	114.497
3054.09	119.386
3054.66	109.831
3055.23	123.61
3055.8	119.832
3056.37	121.055
3056.94	123.167
3057.51	113.612
3058.08	117.723
3058.65	117.724
3059.22	120.613
3059.8	123.614
3060.37	117.948
3060.94	123.726
3061.51	121.615
3062.08	120.616
3062.65	117.172
3063.22	122.617
3063.79	121.951
3064.36	117.951
3064.92	117.063
3065.49	123.841
3066.06	115.175
3066.63	119.953
3067.2	117.731
3067.77	115.954
3068.34	121.288
3068.91	117.177
3069.48	124.4
3070.05	122.512
3070.62	119.512
3071.19	117.291
3071.76	120.402
3072.32	121.847
3072.89	116.181
3073.46	118.182
3074.03	117.626
3074.6	117.96
3075.17	118.85
3075.73	119.406
3076.3	120.517
3076.87	120.74
3077.44	117.852
3078.01	115.075
3078.58	118.075
3079.14	118.076
3079.71	112.52
3080.28	117.632
3080.85	117.744
3081.42	118.3
3081.98	117.745
3082.55	119.079
3083.12	120.857
3083.68	118.524
3084.25	120.413
3084.82	122.081
3085.39	121.637
3085.95	120.526
3086.52	122.304
3087.09	118.749
3087.65	117.305
3088.22	121.195
3088.79	119.306
3089.35	118.751
3089.92	120.085
3090.49	113.197
3091.05	118.753
3091.62	118.976
3092.18	120.976
3092.75	116.532
3093.32	115.533
3093.88	122.422
3094.45	117.756
3095.02	122.312
3095.58	120.313
3096.15	120.535
3096.71	122.425
3097.28	114.647
3097.84	122.87
3098.41	114.315
3098.97	116.204
3099.54	115.316
3100.1	121.539
3100.67	116.762
3101.23	119.873
3101.8	113.207
3102.36	119.43
3102.93	116.43
3103.49	124.875
3104.06	120.32
3104.62	118.543
3105.19	111.877
3105.75	118.988
3106.32	118.1
3106.88	120.323
3107.45	111.768
3108.01	118.101
3108.57	113.769
3109.14	124.88
3109.7	121.325
3110.27	121.659
3110.83	118.993
3111.39	119.771
3111.96	119.994
3112.52	122.883
3113.08	120.662
3113.65	118.551
3114.21	118.996
3114.77	122.996
3115.34	116.219
3115.9	120.109
3116.46	120.665
3117.03	122.665
3117.59	120.888
3118.15	115.333
3118.72	119.222
3119.28	117.778
3119.84	123.112
3120.4	120.668
3120.97	118.224
3121.53	116.78
3122.09	115.336
3122.65	121.892
3123.22	117.56
3123.78	120.894
3124.34	115.45
3124.9	120.672
3125.46	117.117
3126.03	122.118
3126.59	119.007
3127.15	123.785
3127.71	126.786
3128.27	121.342
3128.83	123.787
3129.4	124.343
3129.96	116.455
3130.52	121.788
3131.08	125.456
3131.64	125.123
3132.2	123.123
3132.76	120.457
3133.32	121.569
3133.89	126.569
3134.45	119.014
3135.01	123.126
3135.57	120.682
3136.13	123.682
3136.69	126.683
3137.25	129.239
3137.81	123.906
3138.37	126.24
3138.93	127.574
3139.49	123.797
3140.05	128.13
3140.61	125.242
3141.17	119.576
3141.73	123.243
3142.29	126.91
3142.85	122.355
3143.41	120.8
3143.97	125.912
3144.53	121.468
3145.09	124.246
3145.65	123.802
3146.21	124.485
3146.77	122.167
3147.32	127.405
3147.88	122.976
3148.44	125.214
3149	122.007
3149.56	124.69
3150.12	127.15
3150.68	134.054
3151.24	121.403
3151.8	125.308
3152.35	127.212
3152.91	123.784
3153.47	128.022
3154.03	124.815
3154.59	124.275
3155.15	125.069
3155.7	127.973
3156.26	125.433
3156.82	122.56
3157.38	122.353
3157.94	124.814
3158.49	128.051
3159.05	123.4
3159.61	131.416
3160.17	125.765
3160.72	123.003
3161.28	127.13
3161.84	128.034
3162.4	123.717
3162.95	127.399
3163.51	122.303
3164.07	125.208
3164.62	123.668
3165.18	119.906
3165.74	127.7
3166.3	128.048
3166.85	127.175
3167.41	129.191
3167.97	122.651
3168.52	123.889
3169.08	124.571
3169.63	123.698
3170.19	123.047
3170.75	125.952
3171.3	123.301
3171.86	122.094
3172.41	122.887
3172.97	127.681
3173.53	125.252
3174.08	120.934
3174.64	126.395
3175.19	128.632
3175.75	127.426
3176.3	124.664
3176.86	130.124
3177.41	125.251
3177.97	121.377
3178.53	125.393
3179.08	128.964
3179.63	123.424
3180.19	125.218
3180.74	122.011
3181.3	125.027
3181.85	126.709
3182.41	127.725
3182.96	130.518
3183.52	126.09
3184.07	125.105
3184.63	125.232
3185.18	126.581
3185.74	129.819
3186.29	127.724
3186.84	130.85
3187.4	121.533
3187.95	127.215
3188.51	128.564
3189.06	127.691
3189.61	125.595
3190.17	125.278
3190.72	124.738
3191.27	129.531
3191.83	125.769
3192.38	127.562
3192.93	132.245
3193.49	127.594
3194.04	126.276
3194.59	135.736
3195.15	127.196
3195.7	130.545
3196.25	129.894
3196.81	124.577
3197.36	130.259
3197.91	133.386
3198.46	131.068
3199.02	125.528
3199.57	134.877
3200.12	134.337
3200.67	133.464
3201.23	135.702
3201.78	129.273
3202.33	131.4
3202.88	135.305
3203.43	135.876
3203.99	135.78
3204.54	131.018
3205.09	134.145
3205.64	142.383
3206.19	137.287
3206.74	136.859
3207.3	134.874
3207.85	140.668
3208.4	139.572
3208.95	140.366
3209.5	140.493
3210.05	142.064
3210.6	144.746
3211.15	143.873
3211.71	141.555
3212.26	146.682
3212.81	145.586
3213.36	145.713
3213.91	148.396
3214.46	150.411
3215.01	146.205
3215.56	149.776
3216.11	150.125
3216.66	151.585
3217.21	150.601
3217.76	150.616
3218.31	148.743
3218.86	151.87
3219.41	155.774
3219.96	154.235
3220.51	158.806
3221.06	156.266
3221.61	159.615
3222.16	154.186
3222.71	160.98
3223.26	158.106
3223.81	159.678
3224.36	161.138
3224.91	158.82
3225.45	158.836
3226	165.518
3226.55	161.645
3227.1	157.66
3227.65	164.676
3228.2	165.803
3228.75	162.707
3229.3	161.612
3229.85	157.405
3230.39	164.643
3230.94	168.103
3231.49	165.564
3232.04	151.357
3232.59	155.373
3233.13	159.388
3233.68	158.293
3234.23	160.197
3234.78	156.546
3235.33	154.118
3235.88	154.8
3236.42	153.038
3236.97	155.276
3237.52	153.625
3238.07	154.196
3238.61	152.545
3239.16	150.338
3239.71	150.798
3240.25	149.036
3240.8	150.385
3241.35	146.512
3241.9	136.083
3242.44	137.988
3242.99	145.892
3243.54	141.464
3244.08	136.479
3244.63	141.828
3245.18	139.844
3245.72	140.526
3246.27	136.764
3246.82	140.335
3247.36	131.684
3247.91	137.033
3248.45	133.382
3249	133.731
3249.55	131.414
3250.09	129.541
3250.64	133.778
3251.18	126.572
3251.73	132.921
3252.28	128.159
3252.82	125.063
3253.37	126.412
3253.91	124.872
3254.46	124.888
3255	128.126
3255.55	121.808
3256.09	122.157
3256.64	121.062
3257.18	123.744
3257.73	121.093
3258.27	118.553
3258.82	119.902
3259.36	126.696
3259.91	120.711
3260.45	117.949
3261	118.965
3261.54	120.647
3262.09	120.774
3262.63	123.345
3263.17	122.805
3263.72	121.043
3264.26	118.392
3264.81	123.075
3265.35	115.201
3265.9	118.217
3266.44	114.344
3266.98	117.693
3267.53	119.153
3268.07	113.057
3268.61	115.295
3269.16	115.2
3269.7	118.993
3270.24	120.231
3270.79	117.247
3271.33	116.151
3271.87	116.5
3272.42	114.072
3272.96	116.532
3273.5	120.547
3274.04	119.341
3274.59	113.69
3275.13	117.706
3275.67	119.832
3276.21	117.515
3276.76	112.753
3277.3	114.324
3277.84	114.784
3278.38	112.244
3278.93	113.26
3279.47	111.386
3280.01	116.18
3280.55	118.196
3281.1	111.989
3281.64	112.893
3282.18	111.798
3282.72	117.48
3283.26	118.496
3283.8	112.623
3284.35	114.861
3284.89	114.543
3285.43	113.336
3285.97	115.908
3286.51	112.59
3287.05	114.383
3287.59	114.732
3288.13	112.97
3288.68	111.43
3289.22	111.335
3289.76	114.351
3290.3	111.477
3290.84	110.826
3291.38	108.509
3291.92	110.191
3292.46	112.762
3293	111.334
3293.54	114.683
3294.08	109.587
3294.62	111.492
3295.16	113.063
3295.7	112.856
3296.24	111.872
3296.78	111.884
3297.32	112.239
3297.86	110.131
3298.4	118.617
3298.94	117.168
3299.48	112.545
3300.02	111.572
3300.56	111.983
3301.1	111.526
3301.64	115.521
3302.18	116.667
3302.72	114.973
3303.25	114.703
3303.79	114.31
3304.33	112.632
3304.87	117.412
3305.41	107.507
3305.95	110.336
3306.49	114.462
3307.03	112.756
3307.56	116.104
3308.1	112.929
3308.64	115.997
3309.18	112.872
3309.72	110.429
3310.26	113.471
3310.79	111.588
3311.33	115.196
3311.87	112.144
3312.41	109.063
3312.95	112.515
3313.48	110.614
3314.02	110.632
3314.56	111.531
3315.1	111.318
3315.63	109.093
3316.17	113.741
3316.71	114.27
3317.25	113.426
3317.78	111.612
3318.32	110.926
3318.86	113.02
3319.39	111.236
3319.93	113.501
3320.47	115.283
3321	116.042
3321.54	115.519
3322.08	112.195
3322.61	114.389
3323.15	113.484
3323.69	112.642
3324.22	113.442
3324.76	116.316
3325.3	114.263
3325.83	113.96
3326.37	109.866
3326.9	116.441
3327.44	113.125
3327.98	114.448
3328.51	112.785
3329.05	112.8
3329.58	116.142
3330.12	113.975
3330.65	113.983
3331.19	112.595
3331.73	114.383
3332.26	112.126
3332.8	112.334
3333.33	112.232
3333.86	113.788
3334.4	111.363
3334.94	113.345
3335.47	113.788
3336.01	115.565
3336.54	114.311
3337.07	112.954
3337.61	116.365
3338.14	115.393
3338.68	111.334
3339.21	113.67
3339.75	112.306
3340.28	113.786
3340.82	114.664
3341.35	112.863
3341.88	114.562
3342.42	115.368
3342.95	115.463
3343.49	113.067
3344.02	113.887
3344.55	113.38
3345.09	108.853
3345.62	111.831
3346.15	111.481
3346.69	111.833
3347.22	114.329
3347.75	112.63
3348.29	112.071
3348.82	111.885
3349.35	115.001
3349.89	115.756
3350.42	113.411
3350.95	115.475
3351.48	115.134
3352.02	113.98
3352.12	113.735
3352.67	112.955
3353.22	115.731
3353.77	115.618
3354.32	117.171
3354.87	114.391
3355.41	112.944
3355.96	115.386
3356.51	111.829
3357.06	113.382
3357.6	117.824
3358.15	111.489
3358.7	113.486
3359.25	113.595
3359.8	114.482
3360.34	113.48
3360.89	116.033
3361.44	112.809
3361.99	113.362
3362.53	117.138
3363.08	112.135
3363.63	115.689
3364.17	119.464
3364.72	111.907
3365.27	116.127
3365.81	113.569
3366.36	117.233
3366.91	118.12
3367.45	113.562
3368	113.338
3368.55	116.224
3369.09	120.444
3369.64	117.553
3370.19	114.44
3370.73	109.993
3371.28	115.991
3371.82	113.211
3372.37	114.764
3372.92	112.54
3373.46	116.427
3374.01	116.647
3374.55	112.978
3375.1	118.642
3375.65	114.973
3376.19	113.304
3376.74	115.08
3377.28	119.3
3377.83	112.853
3378.37	114.629
3378.92	116.849
3379.46	113.958
3380.01	115.289
3380.55	114.731
3381.1	117.951
3381.64	119.171
3382.19	116.391
3382.73	118.167
3383.28	111.164
3383.82	113.496
3384.37	111.716
3384.91	115.158
3385.45	118.6
3386	117.153
3386.54	120.596
3387.09	118.927
3387.63	113.036
3388.18	114.7
3388.72	111.92
3389.26	116.807
3389.81	115.027
3390.35	116.247
3390.89	115.8
3391.44	116.465
3391.98	114.129
3392.52	110.016
3393.07	122.013
3393.61	117.567
3394.15	112.676
3394.7	112.229
3395.24	115.227
3395.78	118.78
3396.33	116.111
3396.87	115.665
3397.41	118.107
3397.96	117.66
3398.5	115.88
3399.04	119.1
3399.58	119.431
3400.13	113.429
3400.67	112.538
3401.21	119.647
3401.75	116.2
3402.3	118.865
3402.84	112.64
3403.38	112.638
3403.92	117.525
3404.46	115.3
3405.01	118.965
3405.55	119.407
3406.09	114.405
3406.63	117.069
3407.17	117.178
3407.72	115.065
3408.26	119.063
3408.8	116.727
3409.34	114.947
3409.88	112.723
3410.42	115.831
3410.96	115.274
3411.5	116.049
3412.04	115.491
3412.59	110.045
3413.13	116.043
3413.67	115.151
3414.21	120.483
3414.75	119.591
3415.29	115.034
3415.83	118.365
3416.37	113.14
3416.91	117.027
3417.45	117.025
3417.99	122.134
3418.53	120.576
3419.07	114.574
3419.61	113.127
3420.15	112.792
3420.69	112.234
3421.23	117.343
3421.77	119.007
3422.31	119.672
3422.85	117.447
3423.39	118.556
3423.93	115.443
3424.47	107.996
3425.01	113.216
3425.55	117.769
3426.09	113.656
3426.63	115.432
3427.17	117.763
3427.71	118.427
3428.25	113.869
3428.78	119.423
3429.32	117.532
3429.86	112.752
3430.4	117.305
3430.94	117.858
3431.48	107.745
3432.02	114.409
3432.56	114.852
3433.1	110.183
3433.63	113.736
3434.17	116.956
3434.71	116.621
3435.25	113.063
3435.79	121.283
3436.32	113.947
3436.86	115.723
3437.4	118.721
3437.94	118.052
3438.48	113.827
3439.01	119.825
3439.55	114.712
3440.09	118.598
3440.63	115.041
3441.16	114.594
3441.7	114.592
3442.24	114.59
3442.78	116.698
3443.31	112.807
3443.85	114.138
3444.39	119.136
3444.92	115.801
3445.46	115.91
3446	120.241
3446.54	115.461
3447.07	109.681
3447.61	120.79
3448.14	117.01
3448.68	112.785
3449.22	118.672
3449.75	116.447
3450.29	115.445
3450.83	114.11
3451.36	115.885
3451.9	116.55
3452.44	110.103
3452.97	121.101
3453.51	114.876
3454.04	118.652
3454.58	118.316
3455.11	113.536
3455.65	111.09
3456.19	111.31
3456.72	113.974
3457.26	117.416
3457.79	112.081
3458.33	115.856
3458.86	118.965
3459.4	111.852
3459.93	117.739
3460.47	116.514
3461	113.512
3461.54	115.732
3462.07	110.508
3462.61	122.061
3463.14	111.725
3463.68	114.501
3464.21	115.832
3464.75	115.608
3465.28	118.939
3465.82	114.936
3466.35	115.823
3466.88	116.932
3467.42	113.485
3467.95	118.483
3468.49	117.814
3469.02	116.368
3469.55	113.365
3470.09	112.808
3470.62	109.361
3471.16	118.914
3471.69	117.579
3472.22	120.132
3472.76	116.797
3473.29	120.683
3473.82	114.125
3474.36	117.345
3474.89	114.121
3475.42	116.119
3475.96	119.45
3476.49	116.337
3477.02	115.445
3477.56	119.999
3478.09	114.441
3478.62	114.661
3479.15	117.659
3479.69	111.101
3480.22	117.877
3480.75	115.319
3481.28	119.65
3481.82	122.648
3482.35	118.979
3482.88	116.643
3483.41	112.197
3483.95	120.194
3484.48	117.859
3485.01	119.523
3485.54	118.077
3486.07	118.408
3486.6	114.294
3487.14	117.07
3487.67	110.623
3488.2	118.621
3488.73	115.952
3489.26	115.728
3489.79	113.059
3490.33	118.057
3490.86	120.943
3491.39	119.497
3491.92	118.494
3492.45	112.381
3492.98	115.935
3493.51	113.488
3494.04	113.819
3494.57	115.706
3495.11	111.703
3495.64	113.701
3496.17	119.366
3496.7	115.363
3497.23	114.695
3497.76	113.803
3498.29	118.579
3498.82	118.243
3499.35	112.686
3499.88	111.017
