#Acq. time (s)=	3
#Accumulations=	10
#Range (cm-¹)=	100...3500
#Windows=	6
#Autofocus=	Off
#AutoExposure=	Off
#Spike filter=	Multiple accum.
#Delay time (s)=	0
#Binning=	1
#Readout mode=	Signal
#DeNoise=	Off
#ICS correction=	Off
#Dark correction=	Off
#Inst. Process=	Off
#Instrument=	ARAMIS
#Detector=	Andor CCD
#Objective=	x50 SLWD
#Grating=	1800
#Filter=	100%
#Laser (nm)=	532
#Slit=	150
#Hole=	400
#Location=	Micro
#Range=	VIS
#StageXY=	Marzhauser
#StageZ=	Marzhauser
#X (µm)=	-5189.6
#Y (µm)=	-12843.1
#Z (µm)=	498.45
#Project=	
#Sample=	
#Site=	
#Title=	Oxidised MWCNTs 30_3
#Remark=	
#Date=	06.03.2020 12:34
#Acquired=	06.03.2020 12:34:50
100.291	259.444
101.183	263.776
102.074	258.886
102.968	274.328
103.86	276.438
104.751	285.547
105.643	279.324
106.536	279.211
107.427	273.987
108.318	280.541
109.209	287.872
110.102	292.204
110.993	293.425
111.884	298.201
112.775	301.088
113.665	297.753
114.556	304.974
115.446	292.417
116.337	286.082
117.227	270.08
118.119	259.412
119.009	253.299
119.899	257.519
120.789	253.407
121.679	247.183
122.567	238.959
123.456	237.846
124.346	226.4
125.235	236.954
126.125	225.952
127.014	237.173
127.903	239.838
128.793	243.281
129.682	244.724
130.569	242.611
131.457	248.831
132.346	259.497
133.235	247.162
134.122	234.271
135.01	214.269
135.899	206.49
136.787	210.155
137.673	203.598
138.561	196.707
139.45	198.928
140.336	194.26
141.224	191.702
142.109	194.478
142.997	194.255
143.885	189.031
144.77	188.251
145.658	194.25
146.543	194.359
147.431	187.469
148.316	188.911
149.203	179.91
150.088	186.353
150.975	188.573
151.86	194.238
152.745	191.459
153.632	191.124
154.516	185.344
155.401	193.787
156.287	190.341
157.172	179.006
158.056	186.671
158.942	186.892
159.826	184.668
160.71	188.555
161.594	180.887
162.48	181.107
163.364	178.661
164.247	179.549
165.131	175.325
166.015	180.434
166.898	180.877
167.783	181.431
168.667	191.874
169.55	178.317
170.433	177.648
171.316	175.091
172.199	179.312
173.082	174.532
173.964	179.419
174.847	181.973
175.73	177.305
176.612	179.637
177.495	176.857
178.377	168.633
179.257	174.521
180.139	169.297
181.021	177.184
181.903	182.071
182.785	175.514
183.667	177.401
184.549	183.844
185.428	175.176
186.31	167.619
187.191	174.728
188.073	168.06
188.952	174.28
189.833	169.501
190.714	170.277
191.593	171.831
192.474	174.941
193.355	174.161
194.234	177.604
195.115	176.936
195.993	169.601
196.874	171.043
197.752	168.597
198.633	174.151
199.511	178.039
200.391	177.037
201.269	173.924
202.149	168.923
203.027	173.254
203.907	172.03
204.785	173.029
205.665	173.249
206.542	175.025
207.42	172.579
208.299	177.689
209.176	173.243
210.054	175.908
210.933	181.239
211.81	174.793
212.687	177.458
213.564	170.679
214.441	171.566
215.319	170.231
216.196	184.341
217.073	173.672
217.949	174.782
218.826	178.114
219.702	174.89
220.58	176.666
221.456	173.998
222.332	173.329
223.208	181.216
224.084	175.548
224.96	176.435
225.836	178.323
226.711	176.099
227.587	175.764
228.462	183.096
229.338	177.761
230.213	178.203
231.086	182.313
231.962	178.422
232.837	182.976
233.712	183.975
234.586	182.862
235.461	175.638
236.334	174.081
237.209	180.968
238.083	180.744
238.958	174.631
239.83	175.741
240.704	170.961
241.579	173.293
242.453	169.625
243.325	178.512
244.199	175.955
245.071	177.064
245.944	171.729
246.818	177.728
247.69	179.837
248.563	180.836
249.435	170.834
250.308	182.61
251.179	179.608
252.053	171.273
252.924	181.05
253.797	172.604
254.668	178.935
255.541	180.822
256.411	175.043
257.282	184.041
258.155	181.706
259.025	185.483
259.896	181.036
260.768	177.813
261.638	183.367
262.509	177.92
263.381	183.252
264.251	176.695
265.121	176.471
265.991	176.581
266.862	175.912
267.732	181.799
268.602	183.353
269.471	176.352
270.341	182.795
271.21	179.571
272.079	182.347
272.949	179.345
273.818	182.232
274.689	180.453
275.558	184.674
276.427	179.561
277.295	181.559
278.162	177.78
279.031	174.111
279.899	173.11
280.768	178.553
281.636	168.329
282.504	174.883
283.373	172.103
284.241	176.213
285.109	173.989
285.975	178.876
286.843	172.986
287.71	169.651
288.578	174.427
289.446	174.87
290.311	172.201
291.179	170.422
292.046	175.865
292.911	165.752
293.779	164.417
294.646	166.304
295.511	168.414
296.378	165.634
297.243	164.41
298.11	163.298
298.976	166.74
299.841	160.183
300.707	162.515
301.572	164.736
302.438	160.178
303.303	162.732
304.169	161.397
305.033	166.84
305.897	156.061
306.763	162.281
307.627	161.168
308.493	158.945
309.356	158.721
310.22	161.941
311.086	154.051
311.949	153.938
312.813	158.603
313.676	163.268
314.541	154.6
315.404	157.043
316.267	151.374
317.13	153.484
317.993	150.482
318.858	153.703
319.721	147.257
320.583	143.588
321.446	154.364
322.309	147.252
323.171	150.917
324.033	145.693
324.896	149.469
325.758	149.023
326.62	151.355
327.482	146.02
328.344	150.462
329.206	148.016
330.067	148.348
330.929	144.569
331.791	145.456
332.652	149.232
333.514	144.341
334.373	144.895
335.234	139.227
336.095	145.114
336.957	145.557
337.818	146.889
338.676	139.887
339.537	139.441
340.398	146.995
341.257	140.771
342.117	143.77
342.978	139.657
343.836	145.544
344.697	145.765
345.557	139.763
346.415	139.317
347.275	139.426
348.133	142.758
348.993	142.09
349.853	142.421
350.711	140.309
351.571	139.196
352.428	136.528
353.286	136.637
354.146	137.635
355.003	138.189
355.862	133.854
356.719	134.853
357.577	137.74
358.436	135.516
359.293	139.626
360.15	137.068
361.008	138.067
361.865	136.287
362.722	141.397
363.578	135.617
364.437	140.394
365.293	135.503
366.15	135.279
367.006	134.611
367.862	132.387
368.72	140.052
369.576	129.939
370.432	136.382
371.288	133.936
372.144	130.157
373	131.044
373.855	136.376
374.711	135.374
375.566	134.261
376.422	130.259
377.277	130.258
378.132	135.812
378.987	135.81
379.842	136.697
380.697	136.918
381.55	135.694
382.405	128.804
383.26	130.024
384.114	135.578
384.969	127.465
385.823	134.019
386.676	131.129
387.53	129.794
388.384	129.903
389.236	133.902
390.091	132.011
390.945	133.454
391.798	135.674
392.65	133.451
393.504	131.338
394.356	126.669
395.209	136.335
396.063	136.111
396.914	131.553
397.768	135.663
398.619	135.328
399.472	128.993
400.323	133.214
401.176	134.323
402.027	134.655
402.878	134.209
403.731	135.207
404.582	132.316
405.434	131.87
406.285	134.647
407.135	134.089
407.988	135.643
408.838	131.308
409.688	132.084
410.538	138.194
411.391	129.859
412.241	131.413
413.091	131.3
413.94	130.187
414.79	133.519
415.642	138.628
416.491	130.627
417.341	136.625
418.19	131.957
419.04	132.177
419.889	134.509
420.738	135.73
421.587	133.506
422.436	140.171
423.285	127.947
424.134	136.723
424.983	135.388
425.832	129.609
426.68	131.496
427.529	136.828
428.378	134.493
429.226	134.38
430.074	135.378
430.92	135.821
431.769	129.264
432.617	131.04
433.465	136.483
434.311	132.592
435.159	134.146
436.006	129.7
436.854	135.699
437.7	133.586
438.547	139.362
439.395	132.471
440.24	132.581
441.087	131.801
441.935	132.355
442.78	129.465
443.627	132.574
444.472	127.462
445.319	135.127
446.163	135.681
447.01	133.012
447.855	133.122
448.702	132.12
449.546	137.563
450.392	132.895
451.237	128.226
452.081	133.669
452.927	131.112
453.771	136.11
454.615	131.664
455.461	132.44
456.305	129.439
457.149	134.326
457.993	135.991
458.838	127.989
459.682	132.21
460.525	130.208
461.369	132.984
462.212	128.427
463.057	129.092
463.901	132.646
464.744	129.311
465.587	129.31
466.43	125.975
467.273	126.973
468.115	130.749
468.958	125.858
469.801	125.857
470.643	128.3
471.486	126.076
472.328	129.407
473.17	129.628
474.013	122.071
474.855	123.625
475.697	125.401
476.537	124.955
477.379	124.064
478.221	125.84
479.062	125.172
479.904	124.948
480.744	125.724
481.585	126.945
482.427	121.166
483.268	120.942
484.107	120.162
484.948	121.272
485.79	116.826
486.629	125.824
487.47	125.6
488.309	122.71
489.149	113.597
489.99	120.817
490.829	118.038
491.669	121.814
492.508	119.479
493.348	125.7
494.187	123.254
495.027	121.919
495.865	117.028
496.703	122.915
497.543	121.914
498.381	124.468
499.221	119.466
500.059	121.02
500.897	119.241
501.736	118.906
502.574	117.571
503.412	120.125
504.249	121.123
505.088	117.455
505.926	118.564
506.763	117.562
507.6	125.227
508.437	120.004
509.274	116.558
510.113	120.111
510.95	115.665
511.786	122.219
512.623	117.884
513.46	117.772
514.296	115.77
515.133	115.324
515.969	116.211
516.805	123.098
517.641	119.319
518.477	116.317
519.313	115.871
520.149	112.647
520.983	117.09
521.819	114.533
522.655	116.976
523.49	111.641
524.326	112.75
525.161	110.082
525.995	120.747
526.83	114.968
527.666	116.188
528.501	111.853
529.334	115.518
530.169	116.85
531.004	117.515
531.837	115.513
532.672	119.734
533.504	114.066
534.339	114.175
535.173	114.84
536.006	113.838
536.84	114.726
537.673	114.502
538.507	115.833
539.339	113.832
540.173	109.164
541.005	108.829
541.839	110.827
542.671	111.714
543.503	117.046
544.337	119.378
545.168	115.931
546	117.485
546.833	113.595
547.665	112.815
548.496	112.703
549.327	115.812
550.161	114.255
550.992	112.698
551.823	115.696
552.654	114.139
553.485	117.248
554.317	116.358
555.148	111.467
555.979	117.577
556.809	113.131
557.64	115.129
558.47	113.572
559.301	114.126
560.131	115.902
560.961	113.234
561.791	118.788
562.621	110.897
563.451	114.673
564.281	115.116
565.111	112.003
565.941	112.89
566.768	114.889
567.598	110.665
568.428	116.552
569.257	113.217
570.086	112.993
570.914	115.547
571.743	115.657
572.572	113.655
573.401	111.542
574.228	115.541
575.057	116.984
575.886	111.871
576.713	114.091
577.541	116.201
578.37	113.421
579.196	115.531
580.025	112.974
580.851	112.416
581.68	113.748
582.506	114.08
583.334	114.634
584.16	114.41
584.988	113.075
585.814	115.518
586.642	113.183
587.468	118.181
588.293	117.513
589.121	115.733
589.946	113.732
590.772	113.175
591.599	115.84
592.425	113.505
593.25	119.503
594.075	108.612
594.902	110.833
595.727	111.165
596.552	118.83
597.377	117.161
598.202	114.826
599.026	110.714
599.853	107.157
600.678	113.599
601.502	117.153
602.327	112.041
603.151	112.372
603.975	112.259
604.799	115.924
605.624	111.812
606.448	114.255
607.272	109.364
608.096	118.14
608.919	117.139
609.741	114.026
610.565	115.58
611.388	114.467
612.212	112.132
613.035	117.464
613.859	116.906
614.68	113.905
615.503	113.236
616.326	114.679
617.149	115.9
617.97	115.454
618.793	115.563
619.616	119.006
620.437	117.116
621.26	113.114
622.08	116.89
622.903	110.555
623.725	114.442
624.546	114.33
625.368	119.883
626.188	109.437
627.01	118.547
627.831	114.101
628.653	119.21
629.473	117.875
630.292	117.985
631.114	116.761
631.934	116.204
632.756	117.535
633.575	118.312
634.395	114.865
635.216	114.53
636.035	114.195
636.855	115.416
637.674	121.081
638.495	114.524
639.314	122.522
640.133	113.965
640.952	119.741
641.771	120.851
642.59	117.071
643.408	117.736
644.229	115.735
645.047	117.511
645.866	118.62
646.684	119.507
647.503	119.284
648.321	110.949
649.139	120.614
649.957	118.501
650.775	112.499
651.591	117.609
652.409	115.274
653.227	119.605
654.045	116.159
654.862	119.047
655.68	117.489
656.497	121.154
657.313	123.486
658.13	117.596
658.947	116.816
659.765	115.481
660.58	118.591
661.397	118.034
662.214	118.365
663.029	115.586
663.846	122.917
664.662	126.694
665.477	117.914
666.294	115.357
667.108	116.689
667.925	114.798
668.739	121.463
669.555	116.35
670.37	119.015
671.186	115.236
672	118.568
672.816	119.677
673.63	113.676
674.444	119.118
675.26	115.895
676.073	118.226
676.887	117.558
677.703	117.112
678.516	118.332
679.33	119.553
680.145	118.996
680.958	120.772
681.772	110.993
682.585	113.546
683.398	117.989
684.213	119.765
685.026	119.097
685.839	116.873
686.651	114.538
687.464	117.648
688.277	116.757
689.089	116.756
689.902	115.643
690.714	115.308
691.527	117.528
692.339	122.416
693.151	118.97
693.963	119.412
694.775	116.077
695.587	113.742
696.399	117.741
697.209	120.406
698.021	116.293
698.833	112.18
699.644	114.512
700.456	116.955
701.265	119.953
702.077	117.285
702.888	114.728
703.697	115.726
704.508	114.391
705.319	114.945
706.129	118.832
706.939	120.164
707.75	120.829
708.559	120.05
709.37	114.048
710.179	113.38
710.989	115.6
711.798	115.487
712.608	116.708
713.417	119.04
714.227	116.038
715.035	112.036
715.843	113.924
716.654	118.811
717.462	116.031
718.269	116.363
719.079	118.362
719.887	112.36
720.695	114.358
721.505	115.134
722.312	110.244
723.12	115.131
723.927	110.796
724.737	118.794
725.544	113.46
726.351	114.013
727.158	111.678
727.965	115.232
728.772	113.342
729.579	113.229
730.386	110.894
731.193	111.448
732	109.669
732.806	108.445
733.613	107.999
734.419	111.775
735.226	113.551
736.032	112.105
736.839	115.103
737.645	115.435
738.451	117.989
739.257	115.876
740.061	111.652
740.867	111.984
741.673	111.093
742.479	112.647
743.282	107.757
744.088	111.533
744.894	110.753
745.699	110.196
746.503	113.639
747.308	113.526
748.111	114.525
748.917	112.634
749.722	108.855
750.525	111.186
751.33	116.074
752.133	112.405
752.938	109.07
753.74	115.735
754.545	109.289
755.348	105.621
756.152	111.064
756.955	113.729
757.757	112.616
758.562	110.614
759.364	110.057
760.166	107.833
760.97	107.165
761.773	116.608
762.575	113.717
763.378	112.382
764.18	107.603
764.982	115.935
765.784	109.6
766.586	115.265
767.387	111.596
768.191	109.817
768.992	118.038
769.793	113.036
770.595	119.479
771.396	104.922
772.197	113.253
772.998	113.696
773.799	112.806
774.6	108.248
775.401	112.469
776.202	113.245
777.003	113.91
777.803	120.131
778.602	115.018
779.402	113.572
780.203	112.792
781.003	111.791
781.804	114.234
782.604	107.343
783.402	112.008
784.202	112.34
785.002	113.116
785.8	109.337
786.6	111.779
787.4	111.778
788.198	111.776
788.997	111.663
789.797	108.995
790.594	111.104
791.394	116.436
792.191	109.101
792.991	114.544
793.788	109.765
794.587	109.207
795.384	112.206
796.183	109.649
796.98	111.202
797.779	112.645
798.576	110.532
799.373	105.864
800.171	109.529
800.968	110.75
801.765	113.526
802.563	109.413
803.359	108.745
804.156	112.743
804.952	109.408
805.75	115.851
806.546	108.849
807.342	111.514
808.138	109.513
808.934	112.733
809.73	108.732
810.526	106.952
811.322	109.173
812.117	109.727
812.913	109.836
813.708	108.168
814.504	109.166
815.299	114.72
816.095	111.941
816.89	115.05
817.685	113.604
818.48	117.269
819.275	113.934
820.07	113.044
820.865	112.042
821.658	113.485
822.452	110.483
823.247	114.704
824.042	113.369
824.834	109.478
825.629	110.143
826.423	112.142
827.217	110.251
828.01	110.805
828.804	114.137
829.596	110.913
830.39	113.356
831.184	111.132
831.976	109.686
832.77	114.684
833.561	114.016
834.355	113.57
835.147	112.79
835.94	111.567
836.732	110.232
837.523	111.119
838.317	116.228
839.108	110.449
839.899	112.447
840.692	111.557
841.483	112.111
842.274	112.553
843.067	112.885
843.858	114.772
844.649	117.993
845.44	108.991
846.232	110.434
847.023	110.988
847.813	113.209
848.604	119.429
849.394	114.761
850.184	112.093
850.975	109.424
851.765	115.311
852.555	109.643
853.345	114.197
854.135	110.862
854.925	115.638
855.715	113.859
856.504	117.413
857.294	112.411
858.084	115.187
858.873	114.186
859.663	114.406
860.45	111.849
861.24	110.625
862.029	112.068
862.818	109.4
863.607	107.287
864.394	110.063
865.183	110.839
865.972	111.282
866.759	113.013
867.548	114.067
868.337	109.41
869.123	110.335
869.912	109.709
870.698	104.962
871.487	106.819
872.273	106.43
873.062	113.374
873.848	112.07
874.636	109.45
875.422	108.072
876.21	110.058
876.996	104.849
877.784	110.368
878.57	110.207
879.356	107.731
880.143	108.403
880.929	111.271
881.715	106.58
882.5	108.793
883.287	108.052
884.073	110.851
884.858	108.965
885.643	108.986
886.429	109.537
887.216	111.279
888.001	108.408
888.786	109.646
889.57	111.282
890.355	110.731
891.14	111.855
891.925	111.898
892.709	107.831
893.494	109.48
894.278	111.11
895.063	110.162
895.847	113.051
896.631	108.74
897.416	109.551
898.198	111.025
898.982	111.491
899.766	112.538
900.55	110.279
901.334	110.405
902.115	113.013
902.899	109.623
903.683	113.095
904.466	111.826
905.248	114.603
906.031	112.752
906.815	113.536
907.596	113.231
908.379	115.923
909.161	115.829
909.944	114.432
910.725	118.21
911.508	112.808
912.289	112.09
913.072	114.855
913.852	117.245
914.635	114.494
915.416	115.651
916.198	116.851
916.979	115.498
917.759	118.312
918.542	116.077
919.322	117.223
920.102	117.12
920.884	117.6
921.665	118.185
922.445	119.616
923.225	119.21
924.005	120.187
924.786	121.316
925.566	118.449
926.346	121.514
927.126	123.345
927.905	120.151
928.685	122.501
929.464	121.645
930.243	121.896
931.023	123.652
931.802	119.612
932.581	118.415
933.36	122.142
934.139	122.911
934.918	123.338
935.697	125.362
936.476	125.163
937.253	122.328
938.032	123.543
938.81	122.38
939.589	124.76
940.367	123.823
941.144	124.267
941.922	126.905
942.7	125.592
943.477	123.782
944.255	126.999
945.033	126.976
945.809	125.005
946.587	127.971
947.365	127.018
948.141	125.702
948.919	124.459
949.23	123.802
950.025	127.572
950.822	130.787
951.617	131.002
952.412	125.55
953.207	129.431
954.001	129.202
954.796	125.528
955.589	128.52
956.383	133.513
957.178	133.061
957.972	126.943
958.767	128.046
959.561	130.261
960.355	128.143
961.15	126.802
961.942	124.017
962.736	126.898
963.53	130.224
964.324	136.55
965.115	129.654
965.909	135.091
966.703	133.528
967.496	132.521
968.288	128.847
969.081	131.617
969.875	135.721
970.666	128.824
971.459	139.595
972.251	135.921
973.044	131.58
973.835	135.017
974.628	140.121
975.419	133.225
976.212	133.773
977.002	131.654
977.795	137.091
978.586	133.084
979.378	133.299
980.169	138.847
980.961	136.728
981.752	137.499
982.542	136.158
983.334	135.595
984.124	141.365
984.914	147.803
985.705	141.462
986.496	136.232
987.286	141.225
988.076	140.773
988.866	141.877
989.658	142.647
990.447	141.529
991.237	146.521
992.026	148.069
992.816	139.173
993.605	142.388
994.394	142.381
995.183	139.262
995.973	146.699
996.764	145.469
997.553	143.573
998.341	145.566
999.13	148.447
999.917	143.996
1000.71	146.988
1001.49	149.092
1002.28	143.196
1003.07	141.522
1003.86	144.292
1004.65	142.84
1005.44	147.499
1006.22	152.603
1007.01	147.485
1007.8	150.033
1008.59	151.025
1009.38	146.018
1010.16	145.122
1010.95	148.559
1011.74	147.774
1012.52	156.433
1013.31	149.314
1014.1	149.751
1014.88	154.966
1015.67	152.403
1016.46	152.618
1017.24	152.055
1018.03	148.603
1018.82	154.374
1019.6	151.255
1020.39	156.359
1021.17	153.241
1021.96	154.455
1022.75	154.448
1023.53	160.329
1024.32	152.211
1025.1	161.981
1025.89	158.974
1026.67	161.855
1027.46	156.626
1028.24	157.174
1029.03	158.944
1029.81	157.604
1030.6	160.263
1031.38	162.589
1032.17	163.248
1032.95	161.241
1033.73	154.789
1034.52	159.448
1035.3	157.774
1036.09	161.767
1036.87	163.315
1037.65	164.419
1038.44	170.411
1039.22	165.071
1040	166.174
1040.79	161.278
1041.57	169.048
1042.35	161.486
1043.14	168.145
1043.92	169.249
1044.7	166.241
1045.49	169.456
1046.27	169.893
1047.05	181.441
1047.83	169.1
1048.61	176.093
1049.4	176.53
1050.18	177.523
1050.96	171.404
1051.74	170.952
1052.52	177.501
1053.31	173.049
1054.09	181.486
1054.87	184.923
1055.65	177.693
1056.43	189.908
1057.21	183.012
1057.99	182.338
1058.78	185.775
1059.56	184.767
1060.34	190.316
1061.12	187.864
1061.9	190.968
1062.68	189.071
1063.46	191.175
1064.24	188.501
1065.02	189.382
1065.8	194.153
1066.58	190.479
1067.36	192.582
1068.14	191.797
1068.92	198.234
1069.7	198.894
1070.48	194.886
1071.26	199.212
1072.04	198.205
1072.81	197.42
1073.59	192.301
1074.37	201.738
1075.15	204.731
1075.93	205.279
1076.71	206.383
1077.49	204.153
1078.27	205.479
1079.04	210.583
1079.82	204.686
1080.6	207.124
1081.38	205.783
1082.15	208.998
1082.93	209.101
1083.71	209.538
1084.49	210.864
1085.26	212.524
1086.04	203.183
1086.82	212.287
1087.6	206.613
1088.37	211.494
1089.15	214.487
1089.93	214.479
1090.7	212.25
1091.48	219.131
1092.26	208.679
1093.03	211.005
1093.81	216.331
1094.59	214.324
1095.36	217.205
1096.14	218.309
1096.91	218.524
1097.69	218.405
1098.47	226.954
1099.24	221.724
1100.02	211.494
1100.79	217.154
1101.57	217.813
1102.34	217.361
1103.12	217.465
1103.89	214.569
1104.67	213.561
1105.44	218.443
1106.22	223.102
1106.99	220.317
1107.77	212.198
1108.54	218.524
1109.32	218.072
1110.09	220.065
1110.86	218.724
1111.64	216.161
1112.41	220.265
1113.18	212.48
1113.96	217.139
1114.73	208.687
1115.51	214.236
1116.28	214.45
1117.05	212.665
1117.82	213.436
1118.6	214.317
1119.37	217.088
1120.14	213.969
1120.92	218.406
1121.69	214.176
1122.46	210.502
1123.23	211.162
1124.01	215.71
1124.78	211.591
1125.55	212.251
1126.32	217.465
1127.09	207.569
1127.87	211.451
1128.64	216.777
1129.41	211.769
1130.18	216.651
1130.95	214.866
1131.72	217.858
1132.49	206.295
1133.26	207.843
1134.04	210.28
1134.81	212.718
1135.58	214.71
1136.35	212.369
1137.12	208.918
1137.89	214.799
1138.66	211.014
1139.43	205.229
1140.2	214.666
1140.97	211.77
1141.74	211.873
1142.51	209.199
1143.28	215.747
1144.05	214.073
1144.82	213.288
1145.59	211.281
1146.36	212.384
1147.13	215.933
1147.9	208.592
1148.66	207.696
1149.43	211.688
1150.2	204.903
1150.97	210.562
1151.74	211.666
1152.51	215.992
1153.28	210.874
1154.04	210.755
1154.81	211.414
1155.58	217.629
1156.35	209.177
1157.12	212.392
1157.89	206.051
1158.65	210.933
1159.42	214.814
1160.19	214.696
1160.96	215.022
1161.72	217.126
1162.49	216.896
1163.26	215
1164.02	219.326
1164.79	212.096
1165.56	211.089
1166.32	213.637
1167.09	212.852
1167.86	214.844
1168.62	210.393
1169.39	218.941
1170.16	213.6
1170.92	210.259
1171.69	219.252
1172.45	218.133
1173.22	214.237
1173.98	209.896
1174.75	214.445
1175.52	225.104
1176.28	219.541
1177.05	217.311
1177.81	216.304
1178.58	219.852
1179.34	220.178
1180.11	221.726
1180.87	218.497
1181.64	227.156
1182.4	214.371
1183.17	222.141
1183.93	222.245
1184.69	220.793
1185.46	224.786
1186.22	226.556
1186.99	223.993
1187.75	221.097
1188.51	228.867
1189.28	222.971
1190.04	223.852
1190.8	225.734
1191.57	225.838
1192.33	224.386
1193.09	222.045
1193.86	224.371
1194.62	219.808
1195.38	225.69
1196.14	225.904
1196.91	225.341
1197.67	224.556
1198.43	225.327
1199.19	226.208
1199.96	227.979
1200.72	236.304
1201.48	232.964
1202.24	227.179
1203	227.616
1203.77	233.386
1204.53	231.268
1205.29	226.149
1206.05	236.142
1206.81	229.69
1207.57	231.682
1208.33	227.786
1209.1	225.89
1209.86	236.216
1210.62	236.097
1211.38	231.979
1212.14	235.638
1212.9	233.297
1213.66	233.068
1214.42	238.616
1215.18	230.053
1215.94	239.157
1216.7	238.26
1217.46	242.698
1218.22	234.801
1218.98	243.016
1219.74	236.342
1220.5	242.668
1221.26	241.216
1222.02	241.653
1222.78	243.979
1223.53	247.305
1224.29	251.631
1225.05	249.401
1225.81	246.394
1226.57	244.387
1227.33	247.713
1228.09	250.039
1228.84	248.253
1229.6	252.024
1230.36	250.461
1231.12	249.898
1231.88	250.002
1232.63	251.328
1233.39	259.32
1234.15	252.091
1234.91	254.75
1235.67	251.298
1236.42	255.291
1237.18	258.283
1237.94	261.609
1238.69	263.268
1239.45	267.817
1240.21	263.587
1240.96	262.135
1241.72	260.128
1242.48	264.676
1243.23	264.891
1243.99	263.55
1244.75	270.765
1245.5	270.758
1246.26	272.972
1247.01	265.854
1247.77	268.958
1248.53	267.95
1249.28	272.054
1250.04	275.047
1250.79	274.15
1251.55	269.81
1252.3	276.024
1253.06	275.128
1253.81	281.232
1254.57	280.002
1255.32	279.884
1256.08	284.543
1256.83	282.424
1257.59	286.195
1258.34	297.965
1259.1	289.291
1259.85	293.617
1260.6	294.943
1261.36	298.936
1262.11	300.484
1262.87	308.699
1263.62	306.247
1264.37	293.351
1265.13	307.232
1265.88	302.447
1266.63	301.662
1267.39	310.654
1268.14	316.203
1268.89	312.529
1269.65	310.188
1270.4	320.847
1271.15	318.951
1271.9	324.166
1272.66	326.936
1273.41	329.818
1274.16	326.699
1274.91	333.358
1275.67	334.684
1276.42	335.566
1277.17	343.447
1277.92	341.329
1278.67	348.877
1279.42	338.758
1280.18	349.529
1280.93	353.41
1281.68	362.625
1282.43	357.84
1283.18	361.055
1283.93	367.27
1284.68	374.04
1285.43	379.922
1286.18	377.692
1286.93	389.462
1287.69	389.677
1288.44	388.892
1289.19	400.44
1289.94	403.322
1290.69	410.314
1291.44	415.751
1292.19	423.188
1292.94	413.292
1293.69	423.729
1294.44	436.277
1295.19	448.27
1295.93	446.263
1296.68	456.366
1297.43	458.47
1298.18	479.574
1298.93	480.566
1299.68	482.337
1300.43	489.885
1301.18	504.655
1301.93	509.759
1302.67	521.085
1303.42	529.633
1304.17	539.848
1304.92	549.063
1305.67	561.055
1306.41	576.048
1307.16	571.041
1307.91	602.478
1308.66	621.137
1309.41	618.352
1310.15	631.122
1310.9	664.67
1311.65	670.996
1312.39	700.1
1313.14	708.093
1313.89	727.863
1314.64	749.745
1315.38	760.959
1316.13	790.285
1316.88	799.722
1317.62	824.604
1318.37	850.152
1319.12	862.589
1319.86	914.026
1320.61	918.908
1321.35	963.789
1322.1	956.337
1322.85	1014.77
1323.59	1041.77
1324.34	1075.54
1325.08	1105.75
1325.83	1132.52
1326.57	1155.29
1327.32	1185.95
1328.06	1214.5
1328.81	1229.16
1329.55	1280.37
1330.3	1308.26
1331.04	1328.92
1331.79	1365.69
1332.53	1402.57
1333.28	1417.12
1334.02	1442.11
1334.76	1468.66
1335.51	1477.32
1336.25	1485.97
1337	1480.86
1337.74	1503.18
1338.48	1512.51
1339.23	1514.5
1339.97	1503.49
1340.71	1507.82
1341.46	1500.15
1342.2	1475.69
1342.94	1469.91
1343.69	1428.79
1344.43	1425.67
1345.17	1395
1345.92	1378.1
1346.66	1339.65
1347.4	1333.42
1348.14	1281.3
1348.89	1262.52
1349.63	1235.62
1350.37	1215.5
1351.11	1178.72
1351.85	1145.49
1352.6	1101.92
1353.34	1084.47
1354.08	1052.24
1354.82	1014.9
1355.56	989.227
1356.3	971.331
1357.04	937.99
1357.79	908.538
1358.53	895.753
1359.27	878.301
1360.01	835.072
1360.75	832.842
1361.49	795.057
1362.23	772.05
1362.97	759.598
1363.71	736.479
1364.45	724.138
1365.19	717.131
1365.93	690.679
1366.67	666.339
1367.41	658.109
1368.15	638.768
1368.89	632.539
1369.63	607.531
1370.37	610.079
1371.11	581.072
1371.85	567.176
1372.59	555.946
1373.33	542.605
1374.07	541.82
1374.8	530.702
1375.54	527.361
1376.28	513.576
1377.02	494.235
1377.76	491.006
1378.5	497.332
1379.23	482.88
1379.97	465.428
1380.71	472.198
1381.45	460.191
1382.19	443.628
1382.92	443.065
1383.66	451.169
1384.4	431.606
1385.14	434.154
1385.87	422.924
1386.61	419.361
1387.35	420.576
1388.09	406.235
1388.82	420.006
1389.56	410.443
1390.3	400.102
1391.03	402.873
1391.77	402.087
1392.51	391.747
1393.24	386.184
1393.98	380.287
1394.72	383.058
1395.45	375.606
1396.19	373.043
1396.92	369.702
1397.66	367.139
1398.4	363.354
1399.13	367.125
1399.87	362.451
1400.6	367.332
1401.34	364.436
1402.07	359.54
1402.81	353.31
1403.54	357.858
1404.28	356.295
1405.01	353.066
1405.75	350.392
1406.48	338.717
1407.21	348.266
1407.95	350.369
1408.68	333.806
1409.42	342.132
1410.15	338.792
1410.89	344.784
1411.62	338.666
1412.35	342.992
1413.09	329.54
1413.82	326.644
1414.55	333.858
1415.29	329.407
1416.02	340.177
1416.75	333.947
1417.49	328.051
1418.22	324.821
1418.95	329.481
1419.69	332.918
1420.42	328.577
1421.15	322.57
1421.88	322.562
1422.62	324.111
1423.35	319.214
1424.08	320.318
1424.81	324.199
1425.55	327.637
1426.28	322.074
1427.01	323.844
1427.74	322.392
1428.47	321.274
1429.2	318.377
1429.94	318.259
1430.67	320.807
1431.4	325.244
1432.13	321.903
1432.86	324.34
1433.59	316.555
1434.32	326.548
1435.05	322.318
1435.78	322.2
1436.51	328.303
1437.24	313.185
1437.97	323.289
1438.7	320.392
1439.43	331.274
1440.16	323.489
1440.89	329.926
1441.62	319.474
1442.35	318.911
1443.08	320.126
1443.81	327.563
1444.54	329.556
1445.27	321.215
1446	318.874
1446.73	325.311
1447.46	334.526
1448.19	323.63
1448.92	318.511
1449.65	322.948
1450.37	329.719
1451.1	320.489
1451.83	324.815
1452.56	330.03
1453.29	329.689
1454.02	320.237
1454.74	322.341
1455.47	324.889
1456.2	324.215
1456.93	331.763
1457.66	321.645
1458.38	329.971
1459.11	330.297
1459.84	322.956
1460.57	326.504
1461.29	322.608
1462.02	324.489
1462.75	322.593
1463.47	329.919
1464.2	327.912
1464.93	329.238
1465.65	341.008
1466.38	334.778
1467.11	323.882
1467.83	331.986
1468.56	328.423
1469.29	330.527
1470.01	331.408
1470.74	336.067
1471.46	332.282
1472.19	331.275
1472.92	334.379
1473.64	329.038
1474.37	338.142
1475.09	336.356
1475.82	328.571
1476.54	336.342
1477.27	332.001
1477.99	328.327
1478.72	341.208
1479.44	340.868
1480.17	350.082
1480.89	337.075
1481.62	341.401
1482.34	344.171
1483.06	341.497
1483.79	350.934
1484.51	345.371
1485.24	349.475
1485.96	344.69
1486.69	345.46
1487.41	341.12
1488.13	346.223
1488.86	345.438
1489.58	347.431
1490.3	358.312
1491.03	349.305
1491.75	356.964
1492.47	360.401
1493.19	355.616
1493.92	359.609
1494.64	357.49
1495.36	364.705
1496.08	366.364
1496.81	360.913
1497.53	362.461
1498.25	366.787
1498.97	355.668
1499.7	364.661
1500.42	369.209
1501.14	374.09
1501.86	371.194
1502.58	369.52
1503.3	380.624
1504.03	376.95
1504.75	377.054
1505.47	388.491
1506.19	396.372
1506.91	390.92
1507.63	395.135
1508.35	396.794
1509.07	399.787
1509.8	402.446
1510.52	404.994
1511.24	404.987
1511.96	406.646
1512.68	409.528
1513.4	421.632
1514.12	414.735
1514.84	417.95
1515.56	427.498
1516.28	426.935
1517	430.372
1517.72	446.143
1518.43	442.469
1519.15	449.128
1519.87	455.676
1520.59	458.447
1521.31	464.773
1522.03	469.21
1522.75	465.091
1523.47	487.306
1524.19	489.521
1524.91	500.291
1525.62	496.617
1526.34	508.943
1527.06	507.047
1527.78	517.928
1528.5	521.588
1529.22	533.802
1529.93	547.573
1530.65	553.232
1531.37	571.447
1532.09	570.662
1532.81	585.654
1533.52	597.758
1534.24	613.528
1534.96	619.188
1535.67	627.847
1536.39	670.617
1537.11	664.832
1537.82	690.269
1538.54	723.373
1539.26	730.588
1539.98	753.247
1540.69	773.462
1541.41	808.455
1542.12	820.669
1542.84	851.106
1543.56	879.099
1544.27	912.536
1544.99	939.64
1545.7	982.966
1546.42	1007.51
1547.14	1044.84
1547.85	1082.05
1548.57	1149.49
1549.28	1169.82
1550	1249.25
1550.71	1293.14
1551.43	1350.35
1552.14	1405.34
1552.86	1463.67
1553.57	1519.22
1554.29	1609.77
1555	1682.31
1555.72	1749.75
1556.43	1820.52
1557.14	1922.74
1557.86	1972.51
1558.57	2073.61
1559.29	2156.05
1560	2245.48
1560.71	2331.59
1561.43	2420.69
1562.14	2502.35
1562.85	2582.9
1563.57	2620.07
1564.28	2675.21
1565	2761.09
1565.71	2753.91
1566.42	2794.46
1567.13	2812.48
1567.85	2816.15
1568.56	2795.31
1569.27	2775.77
1569.99	2751.6
1570.7	2685.25
1571.41	2627.02
1572.12	2567.92
1572.83	2474.46
1573.55	2408.54
1574.26	2339.96
1574.97	2260.15
1575.68	2160.58
1576.39	2079.62
1577.1	2015.26
1577.82	1917.05
1578.53	1852.26
1579.24	1766.13
1579.95	1698.38
1580.66	1642.25
1581.37	1557.63
1582.08	1486.55
1582.79	1447.73
1583.51	1392.68
1584.22	1349.3
1584.93	1280.31
1585.64	1246.29
1586.35	1208.03
1587.06	1162.92
1587.77	1136.81
1588.48	1098.62
1589.19	1063.97
1589.9	1045.4
1590.61	1011.52
1591.32	988.198
1592.03	967.315
1592.73	957.048
1593.44	936.615
1594.15	928.126
1594.86	915.664
1595.57	905.571
1596.28	896.468
1596.99	894.212
1597.7	889.931
1598.41	891.48
1599.12	891.347
1599.82	888.798
1600.53	886.346
1601.24	902.255
1601.95	895.06
1602.66	912.432
1603.37	908.872
1604.07	909.885
1604.78	905.359
1605.49	916.324
1606.2	899.33
1606.9	887.672
1607.61	897.063
1608.32	884.097
1609.03	860.77
1609.73	846.731
1610.44	817.616
1611.15	785.433
1611.86	764.491
1612.56	730.422
1613.27	697.162
1613.98	668.627
1614.68	645.463
1615.39	613.945
1616.09	590.173
1616.8	565.38
1617.51	535.596
1618.21	510.334
1618.92	490.23
1619.62	478.133
1620.33	458.443
1621.03	439.702
1621.74	421.174
1622.45	405.264
1623.15	388.999
1623.86	378.266
1624.56	364.546
1625.27	348.753
1625.97	340.773
1626.68	328.282
1627.38	325.347
1628.09	323.866
1628.79	314.545
1629.5	300.178
1630.2	301.109
1630.9	282.258
1631.61	278.702
1632.31	276.322
1633.02	281.076
1633.72	268.75
1634.42	252.985
1635.13	252.393
1635.83	246.466
1636.54	245.277
1637.24	240.128
1637.41	238.304
1638.13	236.651
1638.85	228.553
1639.57	230.011
1640.29	221.58
1641.01	223.371
1641.73	224.162
1642.46	222.398
1643.18	215.411
1643.9	209.757
1644.62	209.437
1645.34	206.34
1646.06	207.464
1646.78	203.144
1647.5	197.935
1648.22	196.615
1648.94	189.962
1649.65	193.197
1650.37	194.21
1651.09	188.446
1651.81	188.904
1652.53	179.139
1653.25	179.375
1653.97	186.721
1654.69	180.846
1655.41	181.415
1656.13	183.317
1656.84	183.33
1657.56	184.566
1658.28	180.023
1659	175.148
1659.72	170.05
1660.44	169.286
1661.16	173.632
1661.87	166.979
1662.59	159.992
1663.31	161.894
1664.03	160.797
1664.74	160.699
1665.46	160.601
1666.18	160.614
1666.9	162.85
1667.61	160.974
1668.33	159.876
1669.05	157.334
1669.77	159.125
1670.48	158.361
1671.2	156.819
1671.92	157.498
1672.63	156.956
1673.35	152.414
1674.07	155.316
1674.78	152.885
1675.5	152.009
1676.21	151.134
1676.93	153.147
1677.65	145.383
1678.36	144.396
1679.08	150.854
1679.79	147.534
1680.51	144.991
1681.22	143.338
1681.94	147.462
1682.66	148.365
1683.37	143.711
1684.09	146.614
1684.8	144.849
1685.52	147.196
1686.23	147.209
1686.95	140.889
1687.66	140.124
1688.38	137.693
1689.09	138.04
1689.8	137.275
1690.52	135.4
1691.23	138.413
1691.95	138.538
1692.66	134.218
1693.37	140.786
1694.09	135.022
1694.8	135.924
1695.52	135.16
1696.23	132.617
1696.94	138.853
1697.66	133.977
1698.37	135.435
1699.08	138.782
1699.8	131.684
1700.51	131.586
1701.22	134.155
1701.94	129.39
1702.65	132.293
1703.36	132.417
1704.07	130.542
1704.79	136.888
1705.5	127.79
1706.21	130.026
1706.92	136.261
1707.63	128.164
1708.35	127.399
1709.06	133.524
1709.77	130.981
1710.48	134.661
1711.19	127.23
1711.9	132.91
1712.62	132.368
1713.33	133.159
1714.04	130.617
1714.75	132.408
1715.46	122.088
1716.17	129.99
1716.88	130.114
1717.59	125.905
1718.3	128.363
1719.02	128.932
1719.73	127.056
1720.44	125.847
1721.15	127.861
1721.86	128.763
1722.57	131.443
1723.28	126.901
1723.99	117.025
1724.7	121.594
1725.41	120.718
1726.12	118.732
1726.83	124.967
1727.54	121.314
1728.25	121.772
1728.96	123.452
1729.66	121.798
1730.37	124.256
1731.08	117.714
1731.79	123.727
1732.5	122.629
1733.21	117.976
1733.92	117.656
1734.63	119.002
1735.33	120.905
1736.04	116.473
1736.75	116.153
1737.46	122.278
1738.17	118.18
1738.88	118.416
1739.58	119.651
1740.29	112.109
1741	119.678
1741.71	120.247
1742.42	112.704
1743.12	121.273
1743.83	117.731
1744.54	117.966
1745.24	115.757
1745.95	114.993
1746.66	119.673
1747.36	117.464
1748.07	113.477
1748.78	117.157
1749.48	111.948
1750.19	110.073
1750.9	117.642
1751.6	115.099
1752.31	114.002
1753.02	110.015
1753.72	107.028
1754.43	113.93
1755.14	110.944
1755.84	110.068
1756.55	115.526
1757.25	118.984
1757.96	115.219
1758.66	112.344
1759.37	115.135
1760.07	113.037
1760.78	109.717
1761.48	109.175
1762.19	112.855
1762.89	108.423
1763.6	105.326
1764.3	113.117
1765.01	105.019
1765.71	113.921
1766.42	113.379
1767.12	105.17
1767.83	110.294
1768.53	108.641
1769.24	114.654
1769.94	108.779
1770.64	111.236
1771.35	112.472
1772.05	109.374
1772.76	104.499
1773.46	112.956
1774.16	111.303
1774.87	104.761
1775.57	108.996
1776.27	105.232
1776.97	107.467
1777.68	107.814
1778.38	105.827
1779.08	110.618
1779.79	107.965
1780.49	108.423
1781.19	106.88
1781.89	103.671
1782.6	107.463
1783.3	105.031
1784	111.267
1784.7	104.28
1785.4	109.849
1786.11	109.529
1786.81	103.987
1787.51	107.778
1788.21	110.013
1788.91	110.916
1789.61	108.373
1790.32	106.831
1791.02	107.844
1791.72	108.302
1792.42	105.315
1793.12	108.218
1793.82	107.564
1794.52	108.133
1795.22	106.702
1795.92	101.271
1796.63	104.617
1797.33	104.964
1798.03	110.311
1798.73	114.435
1799.43	103.782
1800.13	104.351
1800.83	108.142
1801.53	106.933
1802.23	106.391
1802.93	111.071
1803.63	108.639
1804.33	109.542
1805.03	105.888
1805.72	109.679
1806.42	110.248
1807.12	103.817
1807.82	105.941
1808.52	99.6214
1809.22	108.301
1809.92	109.981
1810.62	104.772
1811.32	105.786
1812.01	107.688
1812.71	104.701
1813.41	107.381
1814.11	102.839
1814.81	110.074
1815.51	107.088
1816.2	108.323
1816.9	104.337
1817.6	106.239
1818.3	106.474
1819	106.376
1819.69	106.168
1820.39	107.181
1821.09	105.75
1821.79	103.763
1822.48	102.887
1823.18	108.234
1823.88	107.914
1824.57	107.705
1825.27	107.941
1825.97	105.621
1826.66	105.967
1827.36	106.647
1828.06	108.327
1828.75	107.674
1829.45	105.465
1830.14	109.367
1830.84	108.38
1831.54	109.949
1832.23	107.074
1832.93	108.087
1833.62	107.656
1834.32	110.225
1835.01	104.905
1835.71	107.362
1836.41	103.598
1837.1	106.5
1837.8	109.736
1838.49	110.749
1839.19	104.873
1839.88	106.553
1840.58	103.678
1841.27	102.691
1841.97	108.038
1842.66	110.384
1843.36	107.62
1844.05	107.411
1844.74	108.091
1845.44	106.215
1846.13	107.34
1846.83	109.575
1847.52	101.7
1848.21	108.046
1848.91	107.948
1849.6	104.962
1850.29	112.42
1850.99	104.322
1851.68	111.446
1852.37	110.237
1853.07	109.806
1853.76	107.93
1854.45	110.833
1855.15	110.513
1855.84	107.526
1856.53	106.317
1857.23	109.33
1857.92	112.01
1858.61	114.69
1859.3	111.37
1860	109.495
1860.69	110.73
1861.38	111.632
1862.07	110.09
1862.76	114.326
1863.46	114.894
1864.15	108.241
1864.84	112.143
1865.53	112.379
1866.22	111.948
1866.91	112.072
1867.61	116.419
1868.3	110.654
1868.99	109.001
1869.68	110.57
1870.37	106.583
1871.06	111.485
1871.75	107.499
1872.44	112.845
1873.13	107.97
1873.82	112.094
1874.51	108.996
1875.2	110.009
1875.89	113.467
1876.58	113.481
1877.27	107.494
1877.96	112.396
1878.65	111.854
1879.34	108.756
1880.03	111.436
1880.72	111.449
1881.41	110.463
1882.1	111.031
1882.79	109.822
1883.48	112.614
1884.17	106.405
1884.86	107.529
1885.55	110.987
1886.24	108.333
1886.93	114.347
1887.61	111.471
1888.3	108.596
1888.99	105.164
1889.68	111.733
1890.37	107.191
1891.06	110.76
1891.74	107.662
1892.43	102.898
1893.12	108.689
1893.81	104.702
1894.5	103.715
1895.18	109.729
1895.87	107.742
1896.56	103.2
1897.25	105.991
1897.93	106.448
1898.62	106.24
1899.31	103.586
1899.99	103.933
1900.68	106.168
1901.37	103.848
1902.06	105.195
1902.74	103.986
1903.43	106.11
1904.12	101.568
1904.8	103.248
1905.49	102.706
1906.18	103.941
1906.86	104.51
1907.55	101.412
1908.23	102.981
1908.92	105.439
1909.6	101.341
1910.29	101.466
1910.98	100.701
1911.66	108.826
1912.35	99.95
1913.03	99.7411
1913.72	97.8655
1914.4	100.879
1915.09	94.5588
1915.77	106.35
1916.46	103.919
1917.14	100.599
1917.83	103.279
1918.51	104.625
1919.2	103.305
1919.88	99.9853
1920.57	100.221
1921.25	101.679
1921.94	100.692
1922.62	96.3718
1923.3	99.8295
1923.99	99.954
1924.67	97.1895
1925.35	97.6472
1926.04	101.327
1926.72	97.6738
1927.4	99.576
1928.09	103.367
1928.77	97.7137
1929.46	98.1715
1930.14	99.1848
1930.82	101.309
1931.5	102.434
1932.19	96.4469
1932.87	97.4602
1933.55	98.1402
1934.24	98.8202
1934.92	99.6112
1935.6	93.7357
1936.28	98.8601
1936.96	95.6511
1937.65	97.8867
1938.33	98.9
1939.01	94.9133
1939.69	97.371
1940.38	100.384
1941.06	100.842
1941.74	97.522
1942.42	100.202
1943.1	98.6598
1943.78	99.2286
1944.46	101.686
1945.14	101.144
1945.83	103.38
1946.51	98.6152
1947.19	98.2951
1947.87	97.1973
1948.55	95.8773
1949.23	98.7795
1949.91	98.2372
1950.59	95.8061
1951.27	97.3749
1951.95	100.833
1952.63	99.2904
1953.31	94.8593
1953.99	96.9837
1954.67	98.3303
1955.35	97.8992
1956.03	97.5792
1956.71	99.3703
1957.39	96.3836
1958.07	99.2857
1958.75	94.7435
1959.43	93.979
1960.11	99.659
1960.79	94.1167
1961.47	96.3522
1962.15	97.2544
1962.82	98.0455
1963.5	95.3922
1964.18	94.4055
1964.86	95.0854
1965.54	96.8765
1966.22	102.112
1966.9	95.792
1967.57	98.9164
1968.25	101.263
1968.93	99.8319
1969.61	97.623
1970.29	97.1918
1970.96	96.6496
1971.64	98.9962
1972.32	99.5651
1973	94.5784
1973.67	96.8139
1974.35	95.3828
1975.03	95.285
1975.7	97.7427
1976.38	100.423
1977.06	98.3249
1977.74	95.8937
1978.41	101.685
1979.09	103.476
1979.77	97.9336
1980.44	101.503
1981.12	101.849
1981.8	97.6402
1982.47	100.431
1983.15	97.4446
1983.82	98.7912
1984.5	97.0267
1985.18	97.5956
1985.85	101.053
1986.53	100.067
1987.2	98.8577
1987.88	101.76
1988.55	101.218
1989.23	100.009
1989.9	98.4665
1990.58	101.258
1991.26	97.8264
1991.93	101.729
1992.61	98.9642
1993.28	98.4219
1993.95	101.102
1994.63	95.6707
1995.3	97.4618
1995.98	95.5862
1996.65	100.711
1997.33	98.3906
1998	99.4039
1998.68	100.417
1999.35	95.3194
2000.02	99.5549
2000.7	103.679
2001.37	103.915
2002.05	95.9282
2002.72	98.6081
2003.39	100.621
2004.07	102.635
2004.74	104.537
2005.41	101.884
2006.08	102.008
2006.76	100.244
2007.43	98.7013
2008.1	107.715
2008.78	103.839
2009.45	101.074
2010.12	103.31
2010.8	100.101
2011.47	96.2255
2012.14	101.905
2012.81	99.3632
2013.48	102.265
2014.16	101.723
2014.83	100.736
2015.5	102.75
2016.17	101.208
2016.85	99.9986
2017.52	103.234
2018.19	103.692
2018.86	100.261
2019.53	99.6074
2020.2	103.954
2020.87	100.19
2021.54	106.536
2022.22	102.549
2022.89	98.2294
2023.56	97.6872
2024.23	101.589
2024.9	100.936
2025.57	101.394
2026.24	107.185
2026.91	101.198
2027.58	102.323
2028.25	100.78
2028.92	102.016
2029.59	99.4736
2030.26	99.1535
2030.93	98.0557
2031.6	98.4024
2032.27	100.638
2032.94	97.8734
2033.61	98.9978
2034.28	99.7889
2034.95	101.913
2035.62	99.8155
2036.29	96.4955
2036.96	97.2866
2037.62	101.522
2038.29	99.7576
2038.96	100.326
2039.63	103.118
2040.3	95.3531
2040.97	100.922
2041.64	98.3797
2042.31	101.393
2042.97	96.6285
2043.64	95.3085
2044.31	97.544
2044.98	99.0017
2045.65	97.3484
2046.31	97.5839
2046.98	95.9305
2047.65	96.2772
2048.32	101.179
2048.98	101.193
2049.65	96.4282
2050.32	98.8859
2050.99	97.2326
2051.65	100.468
2052.32	97.037
2052.99	98.0503
2053.66	97.0636
2054.32	98.2991
2054.99	101.312
2055.66	97.9923
2056.32	96.5612
2056.99	97.9078
2057.65	94.3656
2058.32	97.8233
2058.99	99.2811
2059.65	100.294
2060.32	97.0855
2060.99	94.7654
2061.65	98.001
2062.32	92.3476
2062.98	98.8054
2063.65	90.152
2064.31	92.9431
2064.98	99.4008
2065.64	95.9697
2066.31	99.5385
2066.97	93.1074
2067.64	98.6762
2068.3	95.0229
2068.97	95.2584
2069.64	94.8273
2070.3	91.9517
2070.96	95.8539
2071.63	89.8672
2072.29	93.1027
2072.96	93.6715
2073.62	96.9071
2074.29	94.8093
2074.95	94.4892
2075.61	94.3914
2076.28	90.9603
2076.94	94.7514
2077.6	95.5424
2078.27	96.6669
2078.93	92.3468
2079.6	94.249
2080.26	94.2623
2080.92	92.4978
2081.59	94.6222
2082.25	94.6356
2082.91	93.4266
2083.57	92.5511
2084.24	92.231
2084.9	96.1332
2085.56	92.9243
2086.23	93.2709
2086.89	94.1731
2087.55	94.0753
2088.21	94.8664
2088.88	93.4352
2089.54	94.893
2090.2	94.573
2090.86	91.1418
2091.52	91.8218
2092.19	93.9462
2092.85	91.0706
2093.51	90.5284
2094.17	92.4306
2094.83	92.7772
2095.49	89.4572
2096.15	94.1371
2096.81	91.8171
2097.48	92.4971
2098.14	93.6215
2098.8	93.7459
2099.46	88.3148
2100.12	93.8836
2100.78	96.1191
2101.44	94.688
2102.1	92.0346
2102.76	92.6035
2103.42	93.839
2104.08	95.1857
2104.74	91.9767
2105.4	94.8789
2106.06	93.3367
2106.72	93.5722
2107.38	93.0299
2108.04	91.9321
2108.7	91.1677
2109.36	92.181
2110.02	95.3054
2110.68	90.3187
2111.34	91.332
2112	89.9008
2112.66	99.2475
2113.32	92.483
2113.98	92.0518
2114.64	92.5096
2115.29	91.634
2115.95	91.9806
2116.61	89.9939
2117.27	91.8961
2117.93	90.6872
2118.59	90.9227
2119.24	95.2694
2119.9	92.8382
2120.56	92.8515
2121.22	89.3093
2121.88	90.1003
2122.54	94.2248
2123.19	91.127
2123.85	94.2514
2124.51	94.1536
2125.17	88.3891
2125.82	90.958
2126.48	90.3046
2127.14	90.7623
2127.79	91.9979
2128.45	97.3445
2129.11	90.3578
2129.76	95.0378
2130.42	91.94
2131.08	89.6199
2131.73	93.0777
2132.39	89.8688
2133.05	92.4376
2133.7	93.3398
2134.36	93.242
2135.02	91.1442
2135.67	93.713
2136.33	87.9486
2136.98	90.2952
2137.64	89.4196
2138.3	93.7663
2138.95	92.4462
2139.61	90.904
2140.26	87.8062
2140.92	90.7084
2141.57	90.9439
2142.23	89.9572
2142.88	91.8594
2143.54	96.3171
2144.19	93.886
2144.85	90.4548
2145.5	91.8015
2146.16	91.1481
2146.81	90.9392
2147.47	91.508
2148.12	93.0769
2148.78	94.6458
2149.43	93.2146
2150.08	88.0057
2150.74	94.3523
2151.39	91.5879
2152.04	92.1567
2152.7	93.0589
2153.35	91.5167
2154.01	90.9744
2154.66	88.9877
2155.31	94.7788
2155.97	93.3476
2156.62	89.472
2157.27	94.5965
2157.93	90.4987
2158.58	91.8453
2159.23	89.6364
2159.89	90.983
2160.54	93.2185
2161.19	92.4541
2161.84	92.0229
2162.5	92.4807
2163.15	91.2717
2163.8	90.3962
2164.45	93.8539
2165.11	93.645
2165.76	92.8805
2166.41	91.6716
2167.06	89.2404
2167.71	93.5871
2168.37	94.2671
2169.02	90.947
2169.67	90.9603
2170.32	90.6403
2170.97	91.8758
2171.62	91.4447
2172.27	89.5691
2172.92	96.4713
2173.58	94.5957
2174.23	91.2757
2174.88	94.8445
2175.53	91.3023
2176.18	89.8711
2176.83	93.1066
2177.48	91.6755
2178.13	93.1333
2178.78	90.591
2179.43	91.9376
2180.08	94.2843
2180.73	89.742
2181.38	91.6442
2182.03	93.6575
2182.68	93.893
2183.33	90.7952
2183.98	92.5863
2184.63	94.9329
2185.28	95.724
2185.93	94.9595
2186.58	95.9728
2187.23	94.2084
2187.88	97.8883
2188.53	94.9016
2189.17	90.4705
2189.82	97.3727
2190.47	92.4971
2191.12	91.9548
2191.77	96.857
2192.42	97.2037
2193.07	97.8836
2193.71	90.8722
2194.36	91.5263
2195.01	95.384
2195.66	93.3205
2196.31	88.3659
2196.95	93.5109
2197.6	91.6191
2198.25	90.4734
2198.9	92.7513
2199.55	95.2021
2200.19	95.9506
2200.84	95.0609
2201.49	93.897
2202.14	94.3523
2202.78	96.7702
2203.43	92.5301
2204.08	94.3772
2204.72	90.5752
2205.37	96.0264
2206.02	90.4233
2206.66	93.2485
2207.31	94.245
2207.96	93.9734
2208.6	92.8043
2209.25	90.411
2209.9	94.5093
2210.54	92.8701
2211.19	91.564
2211.83	93.5213
2212.48	92.0244
2213.13	89.4091
2213.77	94.1332
2214.42	94.8228
2215.06	94.0569
2215.71	90.5616
2216.35	92.7202
2217	93.5712
2217.64	92.2883
2218.29	92.9102
2218.93	90.9496
2219.58	91.4105
2220.22	92.4635
2220.87	88.3716
2221.51	88.5223
2222.16	93.3348
2222.8	91.6045
2223.45	92.9411
2224.09	91.8689
2224.73	90.1964
2225.38	91.6648
2226.02	89.9101
2226.67	91.3098
2227.31	91.3659
2227.95	92.7149
2228.6	92.2992
2229.24	93.2195
2229.88	91.4108
2230.53	88.8897
2231.17	93.9468
2231.82	96.7477
2232.46	91.3151
2233.1	92.0277
2233.75	90.1916
2234.39	90.5932
2235.03	93.1957
2235.67	93.6284
2236.32	93.2177
2236.96	89.9253
2237.6	96.5036
2238.24	91.0098
2238.89	95.3698
2239.53	90.1483
2240.17	94.13
2240.81	94.2369
2241.45	95.053
2242.1	91.0309
2242.74	91.4281
2243.38	93.374
2244.02	94.3517
2244.66	93.7531
2245.3	92.9318
2245.95	90.6814
2246.59	91.9351
2247.23	90.6885
2247.87	91.7331
2248.51	92.8853
2249.15	94.2761
2249.79	93.5901
2250.43	92.0814
2251.07	92.4467
2251.71	91.7382
2252.36	90.9949
2253	93.3104
2253.64	96.4373
2254.28	93.2151
2254.92	92.9986
2255.56	88.7121
2256.2	94.9201
2256.84	94.718
2257.48	94.6218
2258.12	96.6029
2258.76	89.9876
2259.4	92.3821
2260.04	92.2503
2260.67	92.3885
2261.31	92.0142
2261.95	92.9722
2262.59	93.0548
2262.71	93.0232
2263.37	99.5812
2264.03	95.1391
2264.68	98.697
2265.34	97.6994
2265.99	90.3685
2266.65	91.3709
2267.3	91.0399
2267.96	98.0423
2268.62	94.9336
2269.27	96.0471
2269.93	92.2717
2270.58	96.7186
2271.24	94.6098
2271.89	94.39
2272.55	92.2813
2273.2	97.3948
2273.86	96.8416
2274.51	95.0662
2275.16	97.2909
2275.82	99.4044
2276.47	97.1845
2277.13	101.742
2277.78	93.6338
2278.44	96.9695
2279.09	96.7497
2279.74	96.3076
2280.4	93.9766
2281.05	100.757
2281.71	96.0925
2282.36	94.7616
2283.01	94.6529
2283.67	96.0997
2284.32	98.2132
2284.97	96.4378
2285.63	98.6625
2286.28	94.776
2286.93	96.5561
2287.59	94.4474
2288.24	95.7831
2288.89	98.6744
2289.54	97.3435
2290.2	97.3459
2290.85	98.7927
2291.5	96.0173
2292.15	101.464
2292.81	95.911
2293.46	101.136
2294.11	99.4713
2294.76	94.6959
2295.42	100.032
2296.07	101.034
2296.72	98.4809
2297.37	97.4833
2298.02	98.819
2298.67	97.9325
2299.33	98.7127
2299.98	101.493
2300.63	100.273
2301.28	99.8309
2301.93	104.5
2302.58	103.614
2303.23	100.727
2303.88	97.5072
2304.53	104.176
2305.19	102.845
2305.84	102.514
2306.49	97.9612
2307.14	97.0747
2307.79	101.633
2308.44	100.079
2309.09	95.4152
2309.74	104.306
2310.39	101.642
2311.04	98.9779
2311.69	103.425
2312.34	103.649
2312.99	99.2073
2313.64	101.987
2314.29	104.434
2314.94	103.77
2315.59	101.55
2316.24	104.219
2316.89	104.333
2317.53	106.891
2318.18	99.8931
2318.83	104.562
2319.48	107.676
2320.13	106.345
2320.78	106.68
2321.43	101.794
2322.08	101.796
2322.73	96.2432
2323.37	105.912
2324.02	108.026
2324.67	105.584
2325.32	103.808
2325.97	107.811
2326.61	107.258
2327.26	110.482
2327.91	111.929
2328.56	116.487
2329.21	113.378
2329.85	108.492
2330.5	108.494
2331.15	104.608
2331.8	105.388
2332.44	105.168
2333.09	107.17
2333.74	107.728
2334.38	102.064
2335.03	98.0664
2335.68	104.18
2336.33	105.627
2336.97	107.296
2337.62	107.298
2338.26	108.189
2338.91	104.747
2339.56	110.083
2340.2	105.086
2340.85	109.643
2341.5	106.535
2342.14	106.093
2342.79	107.873
2343.43	111.542
2344.08	108.544
2344.73	109.436
2345.37	109.882
2346.02	105.551
2346.66	107.443
2347.31	109.112
2347.95	111.336
2348.6	106.783
2349.24	111.119
2349.89	114.899
2350.53	109.457
2351.18	113.46
2351.82	106.906
2352.47	109.353
2353.11	111.356
2353.76	110.358
2354.4	112.805
2355.05	110.807
2355.69	111.143
2356.33	110.479
2356.98	109.592
2357.62	110.039
2358.27	111.486
2358.91	110.155
2359.55	110.602
2360.2	112.715
2360.84	110.718
2361.49	111.942
2362.13	114.945
2362.77	113.725
2363.42	108.394
2364.06	109.618
2364.7	107.843
2365.35	108.734
2365.99	113.737
2366.63	115.184
2367.28	115.63
2367.92	116.188
2368.56	113.857
2369.2	114.526
2369.84	114.862
2370.49	115.976
2371.13	119.089
2371.77	118.758
2372.41	115.205
2373.06	112.652
2373.7	118.877
2374.34	119.434
2374.98	114.104
2375.62	118.106
2376.27	120.219
2376.91	116.777
2377.55	123.224
2378.19	123.115
2378.83	119.451
2379.47	119.676
2380.11	126.234
2380.76	119.681
2381.4	123.794
2382.04	127.019
2382.68	128.91
2383.32	123.135
2383.96	122.804
2384.6	120.251
2385.24	124.475
2385.88	129.7
2386.52	121.813
2387.16	121.705
2387.8	125.929
2388.44	128.932
2389.08	128.156
2389.72	128.27
2390.36	125.716
2391	121.941
2391.64	127.499
2392.28	132.724
2392.92	129.504
2393.56	129.284
2394.2	132.731
2394.84	134.178
2395.48	137.291
2396.12	131.627
2396.76	132.407
2397.4	139.409
2398.03	135.967
2398.68	139.081
2399.31	144.194
2399.95	137.975
2400.59	135.199
2401.23	139.09
2401.87	147.759
2402.51	145.429
2403.14	138.875
2403.78	148.656
2404.42	144.88
2405.06	149.66
2405.7	146.774
2406.33	142.443
2406.97	148.334
2407.61	147.67
2408.25	158.339
2408.89	156.786
2409.52	158.344
2410.16	157.124
2410.8	159.571
2411.43	156.684
2412.07	154.02
2412.71	151.467
2413.35	160.803
2413.98	163.36
2414.62	166.807
2415.26	168.81
2415.89	161.923
2416.53	161.037
2417.17	170.372
2417.8	170.597
2418.44	168.711
2419.08	170.157
2419.71	176.715
2420.35	177.384
2420.98	173.387
2421.62	181.834
2422.26	179.725
2422.89	180.394
2423.53	181.73
2424.16	181.065
2424.8	186.401
2425.43	189.292
2426.07	185.184
2426.7	190.297
2427.34	192.3
2427.97	187.635
2428.61	193.527
2429.24	197.196
2429.88	192.865
2430.51	191.2
2431.15	196.647
2431.78	195.427
2432.42	196.541
2433.05	189.543
2433.69	197.99
2434.32	194.437
2434.96	197.773
2435.59	194.553
2436.22	189.111
2436.86	200.447
2437.49	197.671
2438.12	196.674
2438.76	198.898
2439.39	189.901
2440.03	194.236
2440.66	195.683
2441.29	187.352
2441.93	191.688
2442.56	189.357
2443.19	199.137
2443.82	190.917
2444.46	191.586
2445.09	186.144
2445.72	188.813
2446.36	190.705
2446.99	187.707
2447.62	189.932
2448.26	187.934
2448.89	183.159
2449.52	182.383
2450.15	183.83
2450.78	183.388
2451.42	189.835
2452.05	186.282
2452.68	184.395
2453.31	185.175
2453.94	175.733
2454.58	182.069
2455.21	185.516
2455.84	175.074
2456.47	182.743
2457.1	178.745
2457.73	175.97
2458.36	173.639
2459	180.53
2459.63	171.422
2460.26	172.979
2460.89	173.649
2461.52	175.429
2462.15	172.542
2462.78	177.545
2463.41	168.769
2464.04	171.549
2464.67	163.885
2465.3	171.999
2465.93	169.334
2466.56	174.003
2467.19	171.561
2467.82	165.675
2468.45	166.788
2469.08	170.902
2469.71	170.571
2470.34	164.573
2470.97	161.353
2471.6	161.578
2472.23	165.136
2472.86	171.583
2473.49	168.807
2474.12	171.143
2474.75	164.257
2475.38	171.592
2476	169.706
2476.63	168.819
2477.26	163.377
2477.89	166.269
2478.52	164.715
2479.15	159.496
2479.78	168.831
2480.4	159.5
2481.03	158.169
2481.66	156.727
2482.29	161.841
2482.92	157.177
2483.55	157.846
2484.17	156.181
2484.8	158.073
2485.43	160.964
2486.06	159.633
2486.68	155.969
2487.31	156.305
2487.94	157.64
2488.57	158.087
2489.19	156.978
2489.82	159.314
2490.45	157.316
2491.07	156.874
2491.7	149.543
2492.33	159.213
2492.96	157.326
2493.58	157.884
2494.21	153.886
2494.84	160.778
2495.46	153.669
2496.09	155.116
2496.72	155.674
2497.34	162.898
2497.97	159.012
2498.59	161.57
2499.22	163.128
2499.84	157.352
2500.47	156.91
2501.1	161.802
2501.72	161.915
2502.35	155.14
2502.97	159.92
2503.6	153.811
2504.22	153.369
2504.85	150.927
2505.47	152.707
2506.1	149.487
2506.73	150.934
2507.35	161.159
2507.97	155.717
2508.6	158.275
2509.22	156.277
2509.85	148.391
2510.47	151.282
2511.1	154.395
2511.72	154.842
2512.35	154.067
2512.97	160.958
2513.59	158.849
2514.22	154.518
2514.84	153.632
2515.47	157.079
2516.09	157.859
2516.71	158.306
2517.34	154.975
2517.96	159.088
2518.58	155.091
2519.21	158.76
2519.83	158.651
2520.45	159.876
2521.08	155.989
2521.7	160.214
2522.32	162.549
2522.95	149.552
2523.57	156.554
2524.19	156.223
2524.81	158.115
2525.44	157.895
2526.06	162.786
2526.68	162.233
2527.3	158.013
2527.93	157.682
2528.55	157.24
2529.17	157.687
2529.79	159.689
2530.41	160.914
2531.04	161.472
2531.66	163.141
2532.28	155.143
2532.9	159.59
2533.52	160.704
2534.15	166.15
2534.77	158.486
2535.39	169.6
2536.01	159.269
2536.63	161.382
2537.25	164.94
2537.87	162.72
2538.49	160.723
2539.11	162.281
2539.73	157.061
2540.36	162.397
2540.98	165.066
2541.6	165.957
2542.22	168.293
2542.84	161.073
2543.46	164.631
2544.08	166.633
2544.7	167.413
2545.32	159.194
2545.94	167.196
2546.56	169.976
2547.18	168.09
2547.8	164.536
2548.42	165.761
2549.04	171.097
2549.66	171.655
2550.28	171.657
2550.89	170.437
2551.51	175.884
2552.13	170.887
2552.75	169.556
2553.37	178.002
2553.99	169.005
2554.61	172.452
2555.23	164.565
2555.85	176.679
2556.46	178.903
2557.08	177.017
2557.7	173.019
2558.32	172.688
2558.94	178.579
2559.56	178.137
2560.17	180.584
2560.79	176.253
2561.41	185.589
2562.03	178.369
2562.65	188.594
2563.26	186.707
2563.88	183.821
2564.5	177.157
2565.12	185.048
2565.73	182.161
2566.35	183.053
2566.97	186.611
2567.59	191.946
2568.2	188.726
2568.82	187.729
2569.44	183.842
2570.05	188.734
2570.67	191.514
2571.29	188.961
2571.9	193.741
2572.52	201.743
2573.14	194.746
2573.75	192.081
2574.37	200.639
2574.99	199.531
2575.6	197.866
2576.22	201.313
2576.83	204.315
2577.45	200.54
2578.07	200.987
2578.68	209.323
2579.3	207.214
2579.91	208.105
2580.53	198.219
2581.14	205.554
2581.76	209.779
2582.37	211.337
2582.99	208.451
2583.6	214.342
2584.22	209.9
2584.83	218.235
2585.45	215.127
2586.06	218.018
2586.68	223.02
2587.29	222.467
2587.91	222.247
2588.52	227.028
2589.14	230.252
2589.75	222.366
2590.36	223.146
2590.98	230.926
2591.59	223.484
2592.21	232.153
2592.82	234.489
2593.43	242.602
2594.05	242.049
2594.66	238.607
2595.27	240.276
2595.89	235.945
2596.5	246.948
2597.12	244.394
2597.73	247.175
2598.34	246.51
2598.95	248.402
2599.57	247.626
2600.18	254.962
2600.79	265.298
2601.41	262.189
2602.02	264.302
2602.63	266.749
2603.24	265.863
2603.86	266.31
2604.47	267.979
2605.08	284.759
2605.69	272.983
2606.31	284.652
2606.92	280.433
2607.53	287.435
2608.14	292.326
2608.75	299.662
2609.36	287.442
2609.98	298.667
2610.59	305.891
2611.2	301.338
2611.81	306.896
2612.42	321.899
2613.03	314.234
2613.65	326.126
2614.26	323.128
2614.87	326.464
2615.48	330.911
2616.09	343.024
2616.7	337.249
2617.31	338.029
2617.92	344.254
2618.53	358.589
2619.14	357.814
2619.75	360.816
2620.36	367.596
2620.97	376.265
2621.58	381.268
2622.19	375.937
2622.8	386.828
2623.41	392.053
2624.02	393.944
2624.63	403.169
2625.24	405.171
2625.85	415.507
2626.46	422.398
2627.07	423.734
2627.68	441.736
2628.29	428.405
2628.9	453.63
2629.51	456.188
2630.12	454.635
2630.73	467.304
2631.33	472.75
2631.94	480.086
2632.55	497.866
2633.16	495.313
2633.77	513.093
2634.38	509.54
2634.99	506.209
2635.59	518.767
2636.2	530.436
2636.81	548.105
2637.42	550.552
2638.03	556.888
2638.64	564.001
2639.24	577.337
2639.85	591.895
2640.46	601.231
2641.07	625.9
2641.67	628.569
2642.28	625.46
2642.89	653.685
2643.5	661.021
2644.1	676.912
2644.71	675.47
2645.32	694.25
2645.92	705.141
2646.53	720.144
2647.14	730.702
2647.74	762.371
2648.35	758.706
2648.96	763.264
2649.57	784.378
2650.17	798.936
2650.78	806.938
2651.38	815.496
2651.99	842.498
2652.6	859.168
2653.2	862.614
2653.81	873.283
2654.41	917.397
2655.02	916.733
2655.63	924.846
2656.23	938.626
2656.84	962.629
2657.44	968.076
2658.05	992.189
2658.65	1008.64
2659.26	1030.19
2659.86	1031.53
2660.47	1054.42
2661.07	1092.76
2661.68	1098.2
2662.28	1105.09
2662.89	1139.65
2663.49	1155.88
2664.1	1173.55
2664.7	1167.77
2665.31	1201.22
2665.91	1214.33
2666.52	1223.56
2667.12	1239.89
2667.72	1265.23
2668.33	1262.79
2668.93	1284.23
2669.54	1283.68
2670.14	1337.35
2670.74	1319.02
2671.35	1341.35
2671.95	1350.58
2672.55	1365.58
2673.16	1361.47
2673.76	1352.92
2674.36	1371.92
2674.97	1377.48
2675.57	1400.59
2676.17	1384.15
2676.78	1432.15
2677.38	1428.27
2677.98	1398.38
2678.59	1425.16
2679.19	1421.94
2679.79	1412.39
2680.39	1388.5
2681	1414.84
2681.6	1402.17
2682.2	1398.95
2682.8	1387.51
2683.4	1386.96
2684.01	1383.18
2684.61	1358.74
2685.21	1333.52
2685.81	1356.08
2686.41	1318.19
2687.02	1300.53
2687.62	1289.97
2688.22	1301.31
2688.82	1268.98
2689.42	1258.65
2690.02	1242.76
2690.62	1248.76
2691.22	1220.54
2691.83	1207.99
2692.43	1184.55
2693.03	1182.33
2693.63	1144.89
2694.23	1110.11
2694.83	1108.89
2695.43	1101.23
2696.03	1081.12
2696.63	1057.9
2697.23	1054.01
2697.83	1031.35
2698.43	1003.35
2699.03	996.685
2699.63	969.91
2700.23	960.801
2700.83	924.914
2701.43	916.361
2702.03	908.141
2702.63	899.144
2703.23	870.368
2703.83	851.149
2704.43	843.484
2705.03	822.931
2705.63	801.489
2706.23	788.158
2706.83	790.938
2707.43	760.163
2708.02	754.276
2708.62	754.612
2709.22	739.615
2709.82	711.506
2710.42	698.508
2711.02	667.955
2711.62	682.18
2712.21	668.293
2712.81	648.629
2713.41	639.076
2714.01	627.189
2714.61	607.303
2715.2	593.75
2715.8	597.085
2716.4	575.643
2717	571.979
2717.6	556.426
2718.19	539.761
2718.79	540.986
2719.39	524.544
2719.98	514.324
2720.58	510.993
2721.18	496.329
2721.78	491.331
2722.37	485.334
2722.97	484.892
2723.57	474.561
2724.16	450.008
2724.76	458.343
2725.36	451.012
2725.95	437.57
2726.55	431.128
2727.15	426.353
2727.74	415.8
2728.34	411.135
2728.94	399.027
2729.53	392.251
2730.13	396.365
2730.72	382.701
2731.32	376.481
2731.91	369.039
2732.51	373.819
2733.11	351.488
2733.7	356.046
2734.3	352.159
2734.89	347.051
2735.49	337.164
2736.08	335.055
2736.68	329.725
2737.27	327.06
2737.87	328.174
2738.46	310.954
2739.06	313.623
2739.65	312.07
2740.25	298.961
2740.84	304.075
2741.44	303.521
2742.03	292.413
2742.63	289.304
2743.22	276.084
2743.81	280.864
2744.41	285.2
2745	262.314
2745.6	272.205
2746.19	266.874
2746.79	265.765
2747.38	259.656
2747.97	265.659
2748.57	262.772
2749.16	265.664
2749.75	254.555
2750.35	257.668
2750.94	246.782
2751.53	241.118
2752.13	243.342
2752.72	244.9
2753.31	249.68
2753.9	244.572
2754.5	233.352
2755.09	235.799
2755.68	232.69
2756.28	235.581
2756.87	229.917
2757.46	220.475
2758.05	230.477
2758.64	221.369
2759.24	220.26
2759.83	214.262
2760.42	216.153
2761.01	213.489
2761.6	210.825
2762.2	211.938
2762.79	207.607
2763.38	207.61
2763.97	206.612
2764.56	203.504
2765.16	212.617
2765.75	209.064
2766.34	200.066
2766.93	199.291
2767.52	200.96
2768.11	194.851
2768.7	200.52
2769.29	197.967
2769.88	195.97
2770.48	194.774
2771.06	194.42
2771.66	197.228
2772.25	195.994
2772.84	190.922
2773.43	184.157
2774.02	183.081
2774.61	198.706
2775.2	175.166
2775.79	180.644
2776.38	181.631
2776.97	190.469
2777.56	181.979
2778.15	181.308
2778.74	179.509
2779.33	178.888
2779.91	179.984
2780.51	176.292
2781.09	180.629
2781.68	175.711
2782.27	177.22
2782.86	170.058
2783.45	179.304
2784.04	175.164
2784.63	176.896
2785.22	169.044
2785.81	173.105
2786.39	170.949
2786.98	170.563
2787.57	170.213
2788.16	166.56
2788.75	169.193
2789.34	171.065
2789.93	172.694
2790.51	169.204
2791.1	168.677
2791.69	168.343
2792.28	164.962
2792.86	168.071
2793.45	165.248
2794.04	171.235
2794.63	158.657
2795.22	164.134
2795.8	163.317
2796.39	163.513
2796.98	162.72
2797.56	160.207
2798.15	157.87
2798.74	162.377
2799.32	163.271
2799.91	162.817
2800.5	162.721
2801.09	166.016
2801.67	160.647
2802.26	157.365
2802.84	161.546
2803.43	156.943
2804.02	155.256
2804.6	157.395
2805.19	156.247
2805.78	158.13
2806.36	157.901
2806.95	155.49
2807.53	156.19
2808.12	153.288
2808.71	154.943
2809.29	155.117
2809.88	155.954
2810.46	154.203
2811.05	154.898
2811.63	152.822
2812.22	152.351
2812.8	156.432
2813.39	155.396
2813.97	151.784
2814.56	153.574
2815.14	154.805
2815.73	153.42
2816.31	155.443
2816.9	149.062
2817.48	152.947
2818.07	153.895
2818.65	150.341
2819.23	150.765
2819.82	155.336
2820.4	154.215
2820.99	149.613
2821.57	147.491
2822.16	145.987
2822.74	151.121
2823.32	144.223
2823.91	144.134
2824.49	150.74
2825.07	151.145
2825.66	147.646
2826.24	151.894
2826.82	153.637
2827.41	151.551
2827.99	150.981
2828.57	151.893
2829.16	150.698
2829.74	151.057
2830.32	148.746
2830.91	145.77
2831.21	146.429
2831.81	143.651
2832.41	143.984
2833.01	147.872
2833.61	147.761
2834.2	148.205
2834.8	147.538
2835.4	143.537
2836	151.759
2836.6	147.092
2837.2	143.981
2837.8	147.647
2838.39	147.647
2838.99	148.98
2839.59	147.535
2840.19	149.646
2840.79	147.201
2841.38	144.2
2841.98	145.756
2842.58	142.866
2843.18	147.644
2843.77	148.977
2844.37	151.31
2844.97	147.865
2845.57	140.976
2846.16	152.42
2846.76	151.53
2847.36	145.641
2847.95	139.974
2848.55	147.64
2849.15	140.862
2849.75	151.084
2850.34	143.862
2850.94	148.972
2851.54	146.75
2852.13	149.083
2852.73	144.305
2853.32	146.749
2853.92	143.971
2854.52	145.081
2855.11	143.414
2855.71	149.636
2856.3	149.747
2856.9	147.191
2857.5	146.079
2858.09	139.301
2858.69	142.19
2859.28	148.745
2859.88	144.3
2860.48	141.633
2861.07	147.411
2861.67	148.632
2862.26	149.965
2862.86	148.632
2863.45	146.409
2864.05	146.409
2864.64	147.853
2865.24	148.297
2865.83	150.63
2866.43	147.407
2867.02	148.851
2867.62	151.296
2868.21	150.517
2868.8	149.628
2869.4	151.85
2869.99	147.85
2870.59	145.072
2871.18	154.071
2871.77	156.515
2872.37	154.959
2872.96	150.515
2873.56	149.736
2874.15	147.18
2874.74	149.958
2875.34	151.735
2875.93	157.624
2876.52	153.401
2877.12	153.734
2877.71	154.4
2878.3	151.4
2878.9	151.622
2879.49	155.733
2880.08	157.732
2880.68	156.621
2881.27	154.287
2881.86	157.731
2882.46	156.842
2883.05	158.397
2883.64	158.841
2884.23	161.174
2884.82	158.396
2885.42	161.285
2886.01	161.729
2886.6	163.173
2887.19	161.839
2887.79	158.839
2888.38	159.838
2888.97	166.394
2889.56	162.393
2890.15	162.615
2890.74	167.059
2891.34	170.281
2891.93	165.392
2892.52	161.947
2893.11	167.391
2893.7	169.835
2894.29	163.835
2894.89	163.279
2895.48	168.279
2896.07	171.611
2896.66	168.833
2897.25	166.389
2897.84	164.721
2898.43	174.388
2899.02	168.721
2899.61	172.72
2900.2	176.609
2900.79	174.72
2901.38	175.386
2901.97	172.497
2902.56	174.941
2903.15	174.385
2903.74	178.051
2904.33	173.051
2904.92	177.273
2905.51	179.161
2906.1	173.605
2906.69	182.605
2907.28	176.049
2907.87	172.604
2908.46	179.826
2909.05	182.27
2909.64	177.381
2910.23	175.603
2910.82	171.714
2911.41	190.047
2912	182.713
2912.58	177.046
2913.17	182.268
2913.76	177.601
2914.35	181.711
2914.94	177.267
2915.53	177.933
2916.12	183.044
2916.71	183.71
2917.29	181.71
2917.88	181.043
2918.47	184.598
2919.06	177.264
2919.65	186.375
2920.23	183.263
2920.82	182.485
2921.41	187.707
2922	182.484
2922.58	175.262
2923.17	182.706
2923.76	178.039
2924.35	171.705
2924.93	181.372
2925.52	177.371
2926.11	182.149
2926.7	171.37
2927.28	165.926
2927.87	171.259
2928.46	179.48
2929.05	175.258
2929.63	177.146
2930.22	170.924
2930.8	172.701
2931.39	175.701
2931.98	171.367
2932.57	169.811
2933.15	170.478
2933.74	169.811
2934.32	171.921
2934.91	165.81
2935.5	174.587
2936.08	174.809
2936.67	170.253
2937.25	171.919
2937.84	170.252
2938.42	168.474
2939.01	166.141
2939.6	169.585
2940.18	166.251
2940.77	164.028
2941.35	162.584
2941.94	166.583
2942.52	154.583
2943.11	154.582
2943.69	157.027
2944.28	151.804
2944.86	153.581
2945.45	158.692
2946.03	156.47
2946.62	150.469
2947.2	151.913
2947.79	153.357
2948.37	147.357
2948.95	151.912
2949.54	153.134
2950.12	151.356
2950.71	145.689
2951.29	148.133
2951.88	149.91
2952.46	144.466
2953.04	149.021
2953.63	139.798
2954.21	149.02
2954.79	141.464
2955.38	140.797
2955.96	142.13
2956.54	143.13
2957.13	135.129
2957.71	141.24
2958.29	139.684
2958.88	143.239
2959.46	137.795
2960.04	132.794
2960.63	134.572
2961.21	136.127
2961.79	135.46
2962.37	135.015
2962.96	130.459
2963.54	132.57
2964.12	136.014
2964.7	127.347
2965.29	127.013
2965.87	130.791
2966.45	130.679
2967.03	119.234
2967.61	125.123
2968.2	123.456
2968.78	123.344
2969.36	122.233
2969.94	124.232
2970.52	122.454
2971.1	120.898
2971.69	124.787
2972.27	121.675
2972.85	117.675
2973.43	123.341
2974.01	117.785
2974.59	118.23
2975.17	115.229
2975.76	114.896
2976.34	112.451
2976.92	113.339
2977.5	114.783
2978.08	115.894
2978.66	114.894
2979.24	115.116
2979.82	117.671
2980.4	111.67
2980.98	109.114
2981.56	108.336
2982.14	109.336
2982.72	109.669
2983.3	109.669
2983.88	107.779
2984.46	107.001
2985.04	106.668
2985.62	108.889
2986.2	108.445
2986.78	107.333
2987.36	105.777
2987.94	105.443
2988.52	102.332
2989.1	109.443
2989.68	105.553
2990.26	107.775
2990.84	105.886
2991.42	102.775
2991.99	105.441
2992.57	106.329
2993.15	108.885
2993.73	105.995
2994.31	102.217
2994.89	102.217
2995.47	101.217
2996.04	101.327
2996.62	101.216
2997.2	104.104
2997.78	101.437
2998.36	99.6592
2998.93	101.992
2999.51	101.77
3000.09	101.436
3000.67	103.658
3001.25	100.657
3001.82	104.213
3002.4	102.546
3002.98	105.101
3003.56	100.545
3004.13	102.1
3004.71	101.433
3005.29	98.0992
3005.87	99.9878
3006.44	100.21
3007.02	96.2093
3007.6	96.7645
3008.17	98.5419
3008.75	97.0971
3009.33	97.2078
3009.9	102.096
3010.48	95.096
3011.06	97.5401
3011.63	97.7619
3012.21	97.0949
3012.79	100.761
3013.36	99.0942
3013.94	93.8716
3014.51	95.3157
3015.09	95.3153
3015.67	96.6483
3016.24	95.6479
3016.82	91.8698
3017.39	90.6472
3017.97	94.9802
3018.55	96.0909
3019.12	94.0906
3019.7	96.4235
3020.27	97.0898
3020.85	92.0895
3021.42	99.6447
3022	97.7554
3022.57	93.6439
3023.15	94.3102
3023.72	94.5321
3024.3	90.754
3024.87	94.5314
3025.45	90.4199
3026.02	94.1973
3026.59	91.9747
3027.17	93.4188
3027.74	94.0851
3028.32	92.9736
3028.89	96.3066
3029.47	93.3062
3030.04	93.5281
3030.61	90.8611
3031.19	94.6385
3031.76	87.6381
3032.34	93.9711
3032.91	93.7485
3033.49	91.9704
3034.06	92.4145
3034.63	90.4141
3035.2	94.0804
3035.78	92.3023
3036.35	91.6352
3036.93	89.746
3037.5	95.8568
3038.07	92.8564
3038.64	89.5227
3039.22	91.3001
3039.79	93.1886
3040.36	89.8549
3040.94	92.4101
3041.51	91.4098
3042.08	90.0761
3042.65	91.0757
3043.23	88.4087
3043.8	88.2972
3044.37	91.6302
3044.94	92.852
3045.52	87.6294
3046.09	86.6291
3046.66	85.6287
3047.23	92.9617
3047.8	93.5169
3048.38	93.6276
3048.95	84.1828
3049.52	89.1825
3050.09	89.7376
3050.66	85.9595
3051.23	89.2925
3051.8	90.5143
3052.38	88.7362
3052.95	87.9581
3053.52	86.8466
3054.09	88.5129
3054.66	90.957
3055.23	87.9566
3055.8	88.4007
3056.37	94.7337
3056.94	91.7333
3057.51	86.7329
3058.08	89.0659
3058.65	85.6211
3059.22	92.843
3059.8	88.0648
3060.37	86.0645
3060.94	87.3974
3061.51	89.6193
3062.08	86.8412
3062.65	90.8408
3063.22	87.1738
3063.79	87.729
3064.36	86.9508
3064.92	85.6171
3065.49	85.3945
3066.06	85.8386
3066.63	90.616
3067.2	88.949
3067.77	85.7264
3068.34	88.1705
3068.91	85.5035
3069.48	88.5031
3070.05	88.6139
3070.62	85.3913
3071.19	86.0576
3071.76	88.835
3072.32	86.6124
3072.89	88.612
3073.46	88.3895
3074.03	89.9447
3074.6	87.4998
3075.17	90.3884
3075.73	91.1658
3076.3	89.4988
3076.87	84.9428
3077.44	92.2758
3078.01	87.9421
3078.58	87.6084
3079.14	86.9414
3079.71	91.2744
3080.28	89.9407
3080.85	86.1625
3081.42	86.3844
3081.98	90.1618
3082.55	89.6059
3083.12	88.6055
3083.68	88.2718
3084.25	91.0492
3084.82	86.6044
3085.39	86.6041
3085.95	91.2704
3086.52	85.4922
3087.09	84.2697
3087.65	86.8249
3088.22	86.8245
3088.79	81.713
3089.35	82.4904
3089.92	83.0456
3090.49	86.0453
3091.05	90.3782
3091.62	85.6001
3092.18	84.2664
3092.75	89.7105
3093.32	87.0434
3093.88	91.8209
3094.45	88.5983
3095.02	85.3757
3095.58	83.4864
3096.15	88.9305
3096.71	86.1524
3097.28	89.2631
3097.84	86.0405
3098.41	87.1513
3098.97	85.262
3099.54	90.9284
3100.1	91.3724
3100.67	84.9276
3101.23	86.8161
3101.8	90.9269
3102.36	88.7043
3102.93	88.3706
3103.49	90.7036
3104.06	89.9255
3104.62	90.4806
3105.19	86.8136
3105.75	87.3688
3106.32	89.924
3106.88	88.8125
3107.45	85.701
3108.01	84.8118
3108.57	86.5892
3109.14	85.0333
3109.7	87.9218
3110.27	87.477
3110.83	85.3655
3111.39	88.8096
3111.96	84.4759
3112.52	89.1422
3113.08	89.9196
3113.65	87.586
3114.21	90.2523
3114.77	87.0297
3115.34	89.1404
3115.9	90.8067
3116.46	88.0286
3117.03	90.6949
3117.59	85.5834
3118.15	90.2497
3118.72	87.0271
3119.28	90.1379
3119.84	88.8042
3120.4	94.1372
3120.97	87.6924
3121.53	87.9142
3122.09	86.4694
3122.65	86.469
3123.22	86.9131
3123.78	86.6905
3124.34	88.9124
3124.9	93.5787
3125.46	93.1339
3126.03	87.2446
3126.59	91.5776
3127.15	92.0217
3127.71	89.7991
3128.27	91.7987
3128.83	90.6873
3129.4	88.3536
3129.96	91.4643
3130.52	89.2417
3131.08	87.3525
3131.64	96.1299
3132.2	91.2407
3132.76	90.5736
3133.32	91.1288
3133.89	89.684
3134.45	91.5725
3135.01	89.1277
3135.57	90.3496
3136.13	93.0159
3136.69	90.3489
3137.25	95.0152
3137.81	94.7926
3138.37	92.3478
3138.93	95.2363
3139.49	94.2359
3140.05	97.7911
3140.61	93.1241
3141.17	94.2349
3141.73	96.6789
3142.29	92.6786
3142.85	92.2338
3143.41	92.0112
3143.97	93.7886
3144.53	93.2327
3145.09	91.2323
3145.65	93.4542
3146.21	93.3485
3146.77	99.0206
3147.32	95.5816
3147.88	95.476
3148.44	93.037
3149	91.4869
3149.56	93.4923
3150.12	94.1644
3150.68	94.281
3151.24	96.6198
3151.8	96.8474
3152.35	93.964
3152.91	96.3027
3153.47	95.6415
3154.03	98.3136
3154.59	94.8746
3155.15	90.5468
3155.7	94.6633
3156.26	96.6688
3156.82	95.6742
3157.38	94.7908
3157.94	93.3518
3158.49	96.2461
3159.05	93.3626
3159.61	93.4792
3160.17	95.1513
3160.72	95.379
3161.28	98.6067
3161.84	94.3899
3162.4	92.2842
3162.95	95.8452
3163.51	97.0729
3164.07	89.0783
3164.62	95.1949
3165.18	89.9781
3165.74	95.9835
3166.3	98.4334
3166.85	94.4389
3167.41	95.6666
3167.97	90.1164
3168.52	94.5663
3169.08	95.2384
3169.63	93.9106
3170.19	97.6938
3170.75	92.1437
3171.3	94.4825
3171.86	93.3768
3172.41	95.3822
3172.97	93.8321
3173.53	96.1709
3174.08	95.7319
3174.64	98.404
3175.19	96.6317
3175.75	94.0816
3176.3	98.4203
3176.86	88.0925
3177.41	95.209
3177.97	94.77
3178.53	94.8866
3179.08	94.2253
3179.63	95.2308
3180.19	95.4585
3180.74	94.9084
3181.3	98.4693
3181.85	96.2526
3182.41	95.9247
3182.96	96.7079
3183.52	94.1578
3184.07	100.163
3184.63	97.2798
3185.18	97.2853
3185.74	100.068
3186.29	97.5184
3186.84	92.9682
3187.4	100.751
3187.95	102.424
3188.51	101.207
3189.06	98.8789
3189.61	97.6621
3190.17	102.89
3190.72	101.229
3191.27	104.345
3191.83	102.684
3192.38	107.8
3192.93	106.139
3193.49	99.4781
3194.04	102.261
3194.59	102.044
3195.15	108.717
3195.7	105.389
3196.25	103.839
3196.81	109.066
3197.36	107.961
3197.91	109.299
3198.46	110.638
3199.02	113.199
3199.57	107.871
3200.12	106.654
3200.67	111.993
3201.23	112.332
3201.78	113.449
3202.33	115.898
3202.88	117.237
3203.43	115.576
3203.99	124.359
3204.54	120.698
3205.09	120.926
3205.64	123.487
3206.19	122.381
3206.74	126.942
3207.3	126.614
3207.85	130.731
3208.4	134.403
3208.95	134.631
3209.5	135.636
3210.05	135.864
3210.6	133.091
3211.15	139.097
3211.71	139.769
3212.26	138.552
3212.81	137.558
3213.36	144.007
3213.91	141.68
3214.46	140.907
3215.01	150.69
3215.56	139.363
3216.11	140.924
3216.66	147.373
3217.21	154.379
3217.76	155.162
3218.31	148.834
3218.86	154.062
3219.41	155.623
3219.96	150.517
3220.51	146.523
3221.06	154.528
3221.61	156.422
3222.16	148.428
3222.71	152.656
3223.26	143.217
3223.81	148.111
3224.36	152.783
3224.91	139.344
3225.45	141.794
3226	145.022
3226.55	136.805
3227.1	131.81
3227.65	137.149
3228.2	131.932
3228.75	134.049
3229.3	128.165
3229.85	131.837
3230.39	124.176
3230.94	119.515
3231.49	126.409
3232.04	119.859
3232.59	116.865
3233.13	117.759
3233.68	114.32
3234.23	111.325
3234.78	112.109
3235.33	113.003
3235.88	109.453
3236.42	101.681
3236.97	102.686
3237.52	105.803
3238.07	105.03
3238.61	103.147
3239.16	99.2633
3239.71	99.3799
3240.25	96.3853
3240.8	99.9463
3241.35	95.2851
3241.9	92.5128
3242.44	96.8516
3242.99	89.6348
3243.54	90.6402
3244.08	93.0901
3244.63	89.3178
3245.18	85.7677
3245.72	88.9953
3246.27	84.8897
3246.82	86.4507
3247.36	86.345
3247.91	85.1282
3248.45	85.6892
3249	84.2503
3249.55	84.8112
3250.09	83.3723
3250.64	84.1555
3251.18	77.9387
3251.73	80.9441
3252.28	80.1718
3252.82	79.7328
3253.37	84.1827
3253.91	83.9659
3254.46	83.9714
3255	79.4212
3255.55	75.76
3256.09	80.6544
3256.64	82.1043
3257.18	78.443
3257.73	77.004
3258.27	77.6761
3258.82	76.7927
3259.36	78.7981
3259.91	77.8036
3260.45	72.0313
3261	75.1478
3261.54	75.1533
3262.09	80.0476
3262.63	75.3864
3263.17	76.7251
3263.72	74.5084
3264.26	76.1805
3264.81	73.0748
3265.35	76.5247
3265.9	77.3079
3266.44	76.7578
3266.98	77.3188
3267.53	75.5465
3268.07	72.4408
3268.61	77.4463
3269.16	74.2295
3269.7	75.0127
3270.24	73.4626
3270.79	69.3569
3271.33	71.3624
3271.87	71.9234
3272.42	72.1511
3272.96	74.3787
3273.5	74.3842
3274.04	74.0563
3274.59	74.7284
3275.13	75.0672
3275.67	72.2948
3276.21	71.8558
3276.76	73.4168
3277.3	74.4223
3277.84	74.0944
3278.38	73.8776
3278.93	69.7719
3279.47	71.333
3280.01	71.894
3280.55	73.1216
3281.1	74.1271
3281.64	70.577
3282.18	69.8046
3282.72	75.2545
3283.26	75.4822
3283.8	71.7099
3284.35	73.2709
3284.89	72.1652
3285.43	72.8373
3285.97	71.3983
3286.51	70.1815
3287.05	74.4092
3287.59	73.4146
3288.13	70.6423
3288.68	69.7589
3289.22	73.0976
3289.76	68.3253
3290.3	70.3308
3290.84	72.3362
3291.38	68.5639
3291.92	71.6804
3292.46	69.5748
3293	73.0247
3293.54	73.5856
3294.08	69.0355
3294.62	68.8188
3295.16	70.4909
3295.7	71.0519
3296.24	72.2795
3296.78	71.2521
3297.32	69.3788
3297.86	71.2787
3298.4	73.3046
3298.94	71.6043
3299.48	69.1453
3300.02	71.4085
3300.56	71.095
3301.1	71.9247
3301.64	70.3259
3302.18	70.6059
3302.72	68.4352
3303.25	72.6234
3303.79	68.4858
3304.33	71.0228
3304.87	69.9102
3305.41	70.2725
3305.95	69.5786
3306.49	73.4319
3307.03	67.7903
3307.56	72.8899
3308.1	69.3087
3308.64	70.8285
3309.18	70.2059
3309.72	71.1217
3310.26	67.6004
3310.79	67.266
3311.33	68.995
3311.87	71.9083
3312.41	70.5585
3312.95	68.6728
3313.48	70.9788
3314.02	69.8284
3314.56	69.4987
3315.1	72.9013
3315.63	70.0124
3316.17	71.1137
3316.71	68.7564
3317.25	68.8281
3317.78	70.7941
3318.32	69.957
3318.86	69.7894
3319.39	69.3335
3319.93	68.6423
3320.47	67.8157
3321	70.4891
3321.54	70.2714
3322.08	67.9362
3322.61	67.7046
3323.15	67.2666
3323.69	67.5385
3324.22	67.5356
3324.76	68.7542
3325.3	71.9185
3325.83	70.2042
3326.37	70.7949
3326.9	69.2245
3327.44	67.9505
3327.98	69.0079
3328.51	69.709
3329.05	70.3636
3329.58	67.5994
3330.12	68.7419
3330.65	69.6112
3331.19	68.171
3331.73	70.3401
3332.26	67.444
3332.8	66.4409
3333.33	68.5376
3333.86	68.1908
3334.4	70.9293
3334.94	69.6086
3335.47	70.07
3336.01	68.9435
3336.54	69.678
3337.07	68.1389
3337.61	67.6755
3338.14	69.0762
3338.68	68.6843
3339.21	69.8078
3339.75	68.1223
3340.28	67.3248
3340.82	67.3963
3341.35	68.4364
3341.88	68.6937
3342.42	69.9732
3342.95	71.7379
3343.49	70.6007
3344.02	70.4398
3344.55	67.6899
3345.09	67.7744
3345.62	68.2714
3346.15	68.3277
3346.69	71.4948
3347.22	68.5078
3347.75	70.6675
3348.29	70.0436
3348.82	66.8793
3349.35	69.9649
3349.89	68.7382
3350.42	71.2105
3350.95	68.6355
3351.48	68.3206
3352.02	67.2981
3352.12	67.0242
3352.67	65.9121
3353.22	68.3557
3353.77	66.7992
3354.32	71.1316
3354.87	73.6862
3355.41	72.4631
3355.96	68.7955
3356.51	71.7946
3357.06	67.5715
3357.6	66.6817
3358.15	71.1252
3358.7	66.4576
3359.25	68.0122
3359.8	67.4558
3360.34	67.8993
3360.89	69.2317
3361.44	68.5641
3361.99	71.2299
3362.53	69.0067
3363.08	69.7836
3363.63	65.116
3364.17	68.7817
3364.72	68.7808
3365.27	71.3354
3365.81	73.3345
3366.36	70.6669
3366.91	71.8882
3367.45	71.4429
3368	71.7753
3368.55	72.7744
3369.09	69.8846
3369.64	71.6614
3370.19	73.2161
3370.73	73.5485
3371.28	69.992
3371.82	67.1022
3372.37	67.6568
3372.92	66.6559
3373.46	68.655
3374.01	67.8763
3374.55	70.3198
3375.1	68.0967
3375.65	62.8735
3376.19	67.6504
3376.74	69.0939
3377.28	71.5374
3377.83	72.7587
3378.37	69.6467
3378.92	67.868
3379.46	65.9782
3380.01	70.9773
3380.55	73.1986
3381.1	67.7532
3381.64	69.9745
3382.19	71.5292
3382.73	67.8616
3383.28	65.4162
3383.82	65.5264
3384.37	67.9699
3384.91	73.8579
3385.45	68.3014
3386	69.6338
3386.54	69.1885
3387.09	70.0764
3387.63	67.7422
3388.18	65.5191
3388.72	71.2959
3389.26	65.9617
3389.81	71.0718
3390.35	69.6265
3390.89	69.4034
3391.44	71.4024
3391.98	66.8459
3392.52	65.9561
3393.07	69.1774
3393.61	71.9543
3394.15	74.3978
3394.7	70.0636
3395.24	69.9516
3395.78	67.1729
3396.33	70.283
3396.87	71.3932
3397.41	66.059
3397.96	71.947
3398.5	68.6127
3399.04	67.834
3399.58	68.4997
3400.13	68.1655
3400.67	68.2757
3401.21	72.0526
3401.75	73.4961
3402.3	72.4951
3402.84	68.8276
3403.38	72.16
3403.92	68.1591
3404.46	64.2693
3405.01	66.7128
3405.55	68.4896
3406.09	69.0443
3406.63	68.0434
3407.17	67.8202
3407.72	67.3749
3408.26	68.5962
3408.8	73.1508
3409.34	72.0387
3409.88	70.2601
3410.42	70.148
3410.96	66.3693
3411.5	66.5906
3412.04	69.8119
3412.59	65.811
3413.13	68.1434
3413.67	69.8092
3414.21	66.6972
3414.75	69.1407
3415.29	68.1397
3415.83	68.3611
3416.37	67.3601
3416.91	68.2481
3417.45	68.4694
3417.99	71.1352
3418.53	70.0231
3419.07	69.5778
3419.61	67.2435
3420.15	66.7981
3420.69	66.575
3421.23	70.6852
3421.77	66.5732
3422.31	70.0167
3422.85	67.3491
3423.39	70.0149
3423.93	67.9028
3424.47	69.4575
3425.01	68.6788
3425.55	71.3445
3426.09	73.788
3426.63	71.2316
3427.17	67.8973
3427.71	69.0075
3428.25	66.8955
3428.78	67.8945
3429.32	67.8936
3429.86	71.7816
3430.4	69.2251
3430.94	68.7798
3431.48	65.3344
3432.02	66.889
3432.56	66.4437
3433.1	66.8872
3433.63	68.2196
3434.17	69.7742
3434.71	65.9956
3435.25	67.7724
3435.79	67.2159
3436.32	68.5484
3436.86	68.103
3437.4	66.2132
3437.94	69.7678
3438.48	69.2113
3439.01	66.2104
3439.55	65.5428
3440.09	69.9864
3440.63	68.7632
3441.16	67.3178
3441.7	69.428
3442.24	68.6493
3442.78	66.5373
3443.31	67.5364
3443.85	66.7577
3444.39	66.8679
3444.92	68.867
3445.46	66.4216
3446	70.9762
3446.54	71.4198
3447.07	66.53
3447.61	66.529
3448.14	65.7503
3448.68	65.8605
3449.22	68.6374
3449.75	67.6365
3450.29	68.9689
3450.83	70.3013
3451.36	65.7448
3451.9	68.4106
3452.44	67.5208
3452.97	68.0754
3453.51	67.0745
3454.04	64.8513
3454.58	67.1838
3455.11	71.8495
3455.65	69.4041
3456.19	68.181
3456.72	67.6245
3457.26	63.9569
3457.79	66.6227
3458.33	66.2884
3458.86	67.5097
3459.4	67.1755
3459.93	64.9523
3460.47	66.2848
3461	69.6172
3461.54	65.1718
3462.07	68.282
3462.61	72.0589
3463.14	65.169
3463.68	64.057
3464.21	67.1672
3464.75	64.9441
3465.28	67.2765
3465.82	66.2756
3466.35	70.608
3466.88	69.2737
3467.42	71.3839
3467.95	67.8274
3468.49	64.6043
3469.02	68.3812
3469.55	64.9358
3470.09	68.2682
3470.62	65.2673
3471.16	65.2664
3471.69	68.821
3472.22	69.9312
3472.76	66.0414
3473.29	69.7071
3473.82	69.3729
3474.36	68.5942
3474.89	67.0377
3475.42	66.8146
3475.96	71.8136
3476.49	68.1461
3477.02	65.7007
3477.56	67.6998
3478.09	68.1433
3478.62	64.8091
3479.15	68.1415
3479.69	66.4739
3480.22	69.6952
3480.75	69.2498
3481.28	66.4711
3481.82	71.248
3482.35	65.4693
3482.88	65.5795
3483.41	65.023
3483.95	66.6887
3484.48	65.5767
3485.01	64.6869
3485.54	66.7971
3486.07	68.4628
3486.6	68.4619
3487.14	65.3499
3487.67	66.6823
3488.2	66.6814
3488.73	69.1249
3489.26	68.6796
3489.79	66.3453
3490.33	68.4555
3490.86	68.0101
3491.39	71.2314
3491.92	66.8972
3492.45	62.4518
3492.98	68.1176
3493.51	69.45
3494.04	67.8935
3494.57	67.7815
3495.11	66.6694
3495.64	66.6685
3496.17	69.3343
3496.7	65
3497.23	65.9991
3497.76	67.8871
3498.29	68.775
3498.82	68.3297
3499.35	68.2176
3499.88	68.8834
